Wavelength (nm),Intensity
194.9648667,1127.0
195.23630391108566,1028.0
195.50773147432525,1060.0
195.77914938969263,1002.0
196.0505576571618,1030.0
196.32195627670666,1105.0
196.59334524830112,1133.0
196.86472457191908,1119.0
197.13609424753452,1130.0
197.4074542751213,1150.0
197.67880465465336,1140.0
197.9501453861046,1167.0
198.221476469449,1159.0
198.49279790466042,1103.0
198.7641096917128,1134.0
199.03541183058002,1126.0
199.3067043212361,1176.0
199.5779871636549,1157.0
199.84926035781032,1181.0
200.12052390367631,1156.0
200.3917778012268,1171.0
200.66302205043567,1169.0
200.93425665127685,1200.0
201.20548160372428,1187.0
201.4766969077519,1167.0
201.74790256333358,1160.0
202.01909857044328,1151.0
202.29028492905485,1157.0
202.56146163914232,1191.0
202.83262870067955,1151.0
203.10378611364044,1165.0
203.37493387799896,1183.0
203.64607199372895,1184.0
203.91720046080442,1182.0
204.18831927919925,1189.0
204.45942844888737,1201.0
204.73052796984268,1195.0
205.0016178420391,1142.0
205.2726980654506,1180.0
205.54376864005107,1176.0
205.81482956581436,1192.0
206.08588084271452,1159.0
206.3569224707254,1181.0
206.6279544498209,1194.0
206.89897677997493,1218.0
207.1699894611615,1166.0
207.44099249335446,1187.0
207.71198587652776,1185.0
207.9829696106553,1184.0
208.25394369571094,1156.0
208.52490813166872,1168.0
208.79586291850254,1168.0
209.0668080561862,1169.0
209.33774354469375,1185.0
209.60866938399909,1173.0
209.87958557407612,1175.0
210.15049211489873,1184.0
210.42138900644082,1171.0
210.69227624867642,1190.0
210.96315384157936,1186.0
211.2340217851236,1195.0
211.504880079283,1147.0
211.77572872403158,1184.0
212.0465677193432,1177.0
212.31739706519178,1209.0
212.58821676155122,1164.0
212.8590268083955,1193.0
213.1298272056985,1171.0
213.40061795343414,1191.0
213.67139905157634,1135.0
213.94217050009902,1189.0
214.21293229897614,1182.0
214.48368444818158,1191.0
214.75442694768924,1173.0
215.0251597974731,1175.0
215.29588299750702,1184.0
215.56659654776496,1183.0
215.83730044822082,1141.0
216.10799469884853,1171.0
216.378679299622,1208.0
216.64935425051522,1197.0
216.92001955150198,1183.0
217.19067520255626,1178.0
217.46132120365203,1183.0
217.73195755476314,1185.0
218.00258425586358,1145.0
218.27320130692718,1178.0
218.54380870792792,1184.0
218.81440645883973,1207.0
219.0849945596365,1159.0
219.35557301029212,1189.0
219.6261418107806,1155.0
219.8967009610758,1169.0
220.16725046115164,1141.0
220.43779031098202,1175.0
220.70832051054094,1189.0
220.97884105980225,1158.0
221.2493519587399,1158.0
221.5198532073278,1184.0
221.79034480553983,1195.0
222.06082675335,1221.0
222.33129905073216,1165.0
222.60176169766024,1177.0
222.87221469410818,1168.0
223.14265804004987,1182.0
223.41309173545932,1165.0
223.6835157803103,1175.0
223.95393017457684,1197.0
224.22433491823284,1192.0
224.4947300112522,1161.0
224.76511545360884,1180.0
225.0354912452767,1187.0
225.3058573862297,1212.0
225.57621387644173,1171.0
225.84656071588677,1193.0
226.11689790453866,1185.0
226.3872254423714,1219.0
226.65754332935884,1159.0
226.92785156547495,1141.0
227.1981501506936,1155.0
227.46843908498877,1191.0
227.7387183683344,1176.0
228.0089880007043,1198.0
228.27924798207246,1164.0
228.54949831241277,1186.0
228.8197389916992,1157.0
229.08997001990565,1173.0
229.36019139700602,1157.0
229.63040312297423,1176.0
229.90060519778424,1170.0
230.17079762140995,1165.0
230.44098039382527,1180.0
230.71115351500407,1184.0
230.98131698492037,1152.0
231.25147080354805,1187.0
231.52161497086098,1162.0
231.79174948683314,1200.0
232.06187435143846,1171.0
232.33198956465083,1206.0
232.60209512644417,1207.0
232.87219103679237,1182.0
233.1422772956694,1150.0
233.41235390304922,1187.0
233.68242085890563,1170.0
233.95247816321262,1186.0
234.22252581594412,1174.0
234.49256381707403,1195.0
234.7625921665763,1163.0
235.0326108644248,1177.0
235.30261991059345,1167.0
235.57261930505626,1186.0
235.84260904778702,1188.0
236.11258913875972,1170.0
236.3825595779483,1175.0
236.65252036532667,1200.0
236.92247150086874,1171.0
237.19241298454838,1198.0
237.46234481633957,1170.0
237.73226699621623,1194.0
238.00217952415227,1170.0
238.27208240012158,1192.0
238.54197562409814,1144.0
238.8118591960558,1156.0
239.08173311596855,1180.0
239.3515973838103,1199.0
239.62145199955484,1171.0
239.89129696317627,1223.0
240.16113227464845,1188.0
240.43095793394528,1184.0
240.70077394104064,1160.0
240.97058029590852,1183.0
241.24037699852283,1165.0
241.51016404885752,1155.0
241.77994144688643,1141.0
242.04970919258346,1157.0
242.31946728592266,1166.0
242.58921572687785,1214.0
242.85895451542294,1170.0
243.12868365153196,1182.0
243.39840313517874,1183.0
243.66811296633722,1190.0
243.9378131449813,1153.0
244.2075036710849,1185.0
244.47718454462196,1202.0
244.74685576556644,1216.0
245.01651733389218,1159.0
245.28616924957313,1199.0
245.55581151258326,1184.0
245.82544412289644,1194.0
246.09506708048661,1167.0
246.36468038532763,1186.0
246.6342840373935,1172.0
246.9038780366581,1195.0
247.1734623830954,1158.0
247.44303707667922,1176.0
247.71260211738357,1172.0
247.98215750518236,1197.0
248.25170324004947,1191.0
248.5212393219588,1165.0
248.79076575088433,1167.0
249.06028252679997,1178.0
249.32978964967967,1182.0
249.59928711949726,1213.0
249.86877493622674,1165.0
250.13825309984196,1178.0
250.4077216103169,1153.0
250.67718046762548,1208.0
250.94662967174156,1185.0
251.21606922263916,1205.0
251.4854991202921,1166.0
251.75491936467432,1194.0
252.0243299557598,1173.0
252.29373089352242,1202.0
252.5631221779361,1175.0
252.83250380897474,1181.0
253.1018757866123,1162.0
253.37123811082267,1188.0
253.6405907815798,1163.0
253.9099337988576,1198.0
254.1792671626299,1187.0
254.4485908728708,1179.0
254.7179049295541,1146.0
254.98720933265372,1161.0
255.25650408214364,1176.0
255.52578917799767,1185.0
255.79506462018986,1160.0
256.06433040869405,1161.0
256.33358654348416,1182.0
256.60283302453416,1186.0
256.87206985181797,1157.0
257.1412970253095,1187.0
257.41051454498256,1172.0
257.6797224108112,1168.0
257.9489206227693,1159.0
258.2181091808308,1163.0
258.48728808496963,1180.0
258.7564573351596,1213.0
259.0256169313748,1158.0
259.2947668735891,1183.0
259.5639071617763,1182.0
259.83303779591046,1182.0
260.10215877596534,1153.0
260.37127010191506,1183.0
260.64037177373336,1158.0
260.90946379139433,1197.0
261.17854615487175,1157.0
261.4476188641396,1171.0
261.7166819191719,1174.0
261.98573531994236,1195.0
262.254779066425,1145.0
262.5238131585938,1145.0
262.7928375964225,1164.0
263.0618523798853,1189.0
263.33085750895583,1152.0
263.59985298360823,1175.0
263.86883880381635,1178.0
264.1378149695541,1204.0
264.40678148079536,1165.0
264.675738337514,1194.0
264.94468553968426,1183.0
265.2136230872796,1207.0
265.48255098027425,1164.0
265.75146921864206,1179.0
266.0203778023569,1165.0
266.28927673139276,1173.0
266.55816600572354,1133.0
266.8270456253231,1183.0
267.09591559016536,1186.0
267.3647759002244,1197.0
267.63362655547394,1163.0
267.90246755588805,1182.0
268.17129890144054,1213.0
268.4401205921055,1158.0
268.7089326278566,1138.0
268.9777350086678,1165.0
269.24652773451334,1145.0
269.5153108053667,1150.0
269.7840842212021,1133.0
270.0528479819934,1171.0
270.32160208771444,1178.0
270.5903465383392,1184.0
270.8590813338416,1173.0
271.12780647419555,1203.0
271.39652195937487,1188.0
271.6652277893537,1191.0
271.9339239641058,1135.0
272.2026104836051,1140.0
272.4712873478256,1140.0
272.73995455674117,1194.0
273.0086121103257,1187.0
273.2772600085531,1182.0
273.54589825139743,1163.0
273.8145268388324,1156.0
274.0831457708321,1150.0
274.3517550473704,1181.0
274.62035466842116,1158.0
274.88894463395843,1201.0
275.157524943956,1177.0
275.4260955983878,1194.0
275.69465659722783,1179.0
275.96320794045,1167.0
276.2317496280281,1155.0
276.50028165993626,1181.0
276.76880403614825,1155.0
277.03731675663806,1193.0
277.30581982137954,1161.0
277.57431323034666,1176.0
277.8427969835133,1181.0
278.11127108085344,1216.0
278.37973552234104,1137.0
278.64819030794985,1181.0
278.9166354376539,1178.0
279.18507091142715,1187.0
279.45349672924345,1170.0
279.7219128910767,1166.0
279.99031939690093,1160.0
280.25871624668997,1170.0
280.5271034404177,1162.0
280.79548097805815,1162.0
281.0638488595852,1164.0
281.33220708497277,1174.0
281.6005556541948,1153.0
281.86889456722514,1152.0
282.13722382403773,1171.0
282.4055434246065,1173.0
282.6738533689055,1169.0
282.9421536569084,1173.0
283.21044428858926,1146.0
283.47872526392206,1154.0
283.7469965828806,1145.0
284.015258245439,1197.0
284.2835102515709,1192.0
284.5517526012503,1194.0
284.81998529445127,1177.0
285.0882083311476,1192.0
285.35642171131326,1179.0
285.6246254349221,1173.0
285.89281950194817,1152.0
286.1610039123653,1161.0
286.42917866614744,1145.0
286.6973437632684,1180.0
286.9654992037023,1151.0
287.23364498742285,1184.0
287.5017811144041,1185.0
287.76990758462,1191.0
288.0380243980444,1151.0
288.3061315546512,1183.0
288.57422905441445,1159.0
288.84231689730785,1169.0
289.11039508330543,1148.0
289.37846361238127,1181.0
289.64652248450903,1169.0
289.91457169966276,1216.0
290.1826112578164,1150.0
290.4506411589439,1170.0
290.718661403019,1169.0
290.98667199001574,1192.0
291.2546729199081,1147.0
291.5226641926699,1162.0
291.79064580827514,1177.0
292.0586177666976,1187.0
292.3265800679113,1167.0
292.5945327118902,1189.0
292.8624756986082,1170.0
293.1304090280392,1225.0
293.39833270015714,1187.0
293.6662467149358,1177.0
293.93415107234927,1160.0
294.2020457723715,1185.0
294.46993081497624,1211.0
294.7378062001375,1173.0
295.00567192782927,1185.0
295.2735279980254,1190.0
295.5413744106997,1156.0
295.8092111658262,1158.0
296.07703826337894,1155.0
296.34485570333163,1213.0
296.6126634856583,1158.0
296.8804616103328,1172.0
297.1482500773291,1180.0
297.41602888662123,1182.0
297.68379803818294,1164.0
297.95155753198816,1170.0
298.21930736801085,1165.0
298.487047546225,1185.0
298.7547780666044,1177.0
299.0224989291231,1181.0
299.29021013375495,1176.0
299.55791168047386,1194.0
299.8256035692538,1168.0
300.09328580006866,1174.0
300.36095837289236,1158.0
300.6286212876987,1161.0
300.8962745444619,1147.0
301.1639181431556,1187.0
301.43155208375384,1170.0
301.6991763662305,1178.0
301.96679099055956,1150.0
302.2343959567149,1154.0
302.5019912646703,1163.0
302.76957691440003,1195.0
303.0371529058777,1166.0
303.3047192390773,1190.0
303.5722759139728,1177.0
303.8398229305381,1187.0
304.10736028874715,1164.0
304.37488798857385,1194.0
304.6424060299921,1185.0
304.9099144129758,1163.0
305.1774131374989,1140.0
305.4449022035354,1165.0
305.712381611059,1174.0
305.9798513600438,1182.0
306.2473114504638,1180.0
306.5147618822927,1207.0
306.7822026555046,1171.0
307.0496337700733,1162.0
307.3170552259727,1157.0
307.5844670231768,1199.0
307.8518691616595,1191.0
308.1192616413948,1155.0
308.38664446235646,1150.0
308.65401762451853,1180.0
308.9213811278549,1148.0
309.1887349723394,1130.0
309.45607915794614,1155.0
309.7234136846488,1169.0
309.9907385524215,1144.0
310.25805376123805,1163.0
310.52535931107235,1166.0
310.79265520189847,1195.0
311.0599414336902,1168.0
311.32721800642145,1216.0
311.5944849200662,1178.0
311.86174217459836,1182.0
312.12898976999185,1192.0
312.3962277062206,1199.0
312.66345598325853,1150.0
312.93067460107955,1182.0
313.19788355965755,1185.0
313.4650828589664,1194.0
313.7322724989802,1146.0
313.99945247967264,1154.0
314.26662280101783,1160.0
314.5337834629897,1193.0
314.800934465562,1154.0
315.0680758087088,1182.0
315.3352074924039,1168.0
315.60232951662135,1180.0
315.869441881335,1138.0
316.13654458651877,1143.0
316.4036376321465,1164.0
316.6707210181923,1205.0
316.93779474462997,1174.0
317.20485881143344,1167.0
317.4719132185766,1175.0
317.73895796603347,1188.0
318.00599305377784,1158.0
318.2730184817837,1156.0
318.5400342500249,1180.0
318.8070403584756,1210.0
319.07403680710945,1135.0
319.3410235959005,1182.0
319.6080007248226,1181.0
319.8749681938497,1187.0
320.14192600295576,1157.0
320.40887415211466,1162.0
320.6758126413003,1165.0
320.9427414704866,1170.0
321.20966063964755,1155.0
321.47657014875705,1197.0
321.743469997789,1174.0
322.0103601867173,1192.0
322.27724071551586,1147.0
322.5441115841586,1187.0
322.81097279261957,1152.0
323.07782434087244,1185.0
323.3446662288914,1162.0
323.6114984566502,1171.0
323.87832102412284,1162.0
324.1451339312832,1185.0
324.4119371781052,1139.0
324.6787307645628,1183.0
324.9455146906298,1166.0
325.2122889562803,1185.0
325.47905356148806,1168.0
325.7458085062271,1182.0
326.0125537904713,1144.0
326.2792894141946,1167.0
326.5460153773709,1134.0
326.8127316799741,1165.0
327.0794383219783,1169.0
327.3461353033571,1201.0
327.6128226240847,1165.0
327.8795002841348,1186.0
328.1461682834814,1161.0
328.4128266220986,1170.0
328.6794752999601,1131.0
328.9461143170399,1157.0
329.2127436733119,1191.0
329.47936336875,1197.0
329.7459734033282,1178.0
330.01257377702035,1176.0
330.27916448980034,1163.0
330.5457455416422,1190.0
330.8123169325198,1168.0
331.078878662407,1181.0
331.3454307312779,1182.0
331.6119731391061,1203.0
331.8785058858659,1132.0
332.14502897153085,1158.0
332.41154239607516,1150.0
332.6780461594726,1191.0
332.94454026169717,1165.0
333.2110247027227,1194.0
333.47749948252317,1165.0
333.74396460107255,1201.0
334.0104200583446,1183.0
334.2768658543135,1164.0
334.54330198895286,1174.0
334.80972846223676,1180.0
335.0761452741392,1154.0
335.342552424634,1188.0
335.608949913695,1162.0
335.8753377412963,1195.0
336.14171590741176,1154.0
336.40808441201517,1189.0
336.67444325508063,1157.0
336.9407924365819,1174.0
337.20713195649313,1150.0
337.4734618147879,1169.0
337.73978201144047,1156.0
338.0060925464246,1169.0
338.27239341971415,1164.0
338.5386846312832,1193.0
338.8049661811055,1152.0
339.0712380691551,1163.0
339.3375002954059,1152.0
339.60375285983173,1185.0
339.86999576240663,1190.0
340.13622900310435,1179.0
340.40245258189907,1163.0
340.6686664987645,1159.0
340.93487075367466,1160.0
341.20106534660334,1178.0
341.4672502775246,1173.0
341.7334255464124,1177.0
341.9995911532405,1163.0
342.2657470979829,1230.0
342.53189338061344,1151.0
342.7980300011063,1174.0
343.0641569594351,1197.0
343.3302742555738,1201.0
343.5963818894965,1143.0
343.862479861177,1178.0
344.12856817058923,1161.0
344.3946468177071,1199.0
344.6607158025046,1141.0
344.9267751249555,1172.0
345.19282478503396,1183.0
345.4588647827136,1175.0
345.7248951179686,1156.0
345.9909157907727,1154.0
346.25692680109995,1178.0
346.5229281489242,1171.0
346.78891983421937,1152.0
347.0549018569594,1174.0
347.3208742171182,1184.0
347.5868369146698,1189.0
347.8527899495879,1171.0
348.11873332184655,1161.0
348.38466703141967,1155.0
348.6505910782812,1154.0
348.916505462405,1147.0
349.182410183765,1179.0
349.44830524233515,1174.0
349.71419063808935,1177.0
349.98006637100156,1154.0
350.2459324410456,1188.0
350.5117888481955,1175.0
350.7776355924252,1188.0
351.04347267370844,1161.0
351.3093000920194,1174.0
351.57511784733174,1149.0
351.8409259396196,1172.0
352.1067243688567,1150.0
352.3725131350171,1194.0
352.63829223807465,1202.0
352.90406167800336,1205.0
353.16982145477704,1193.0
353.4355715683696,1208.0
353.7013120187552,1166.0
353.9670428059074,1199.0
354.2327639298004,1180.0
354.498475390408,1177.0
354.7641771877041,1154.0
355.0298693216627,1184.0
355.29555179225764,1154.0
355.5612245994629,1192.0
355.82688774325237,1181.0
356.0925412236,1189.0
356.35818504047967,1169.0
356.62381919386536,1189.0
356.8894436837309,1162.0
357.1550585100503,1182.0
357.42066367279745,1154.0
357.6862591719462,1174.0
357.95184500747064,1174.0
358.2174211793444,1174.0
358.48298768754177,1173.0
358.74854453203636,1188.0
359.0140917128022,1150.0
359.2796292298133,1171.0
359.5451570830435,1151.0
359.8106752724667,1189.0
360.0761837980568,1153.0
360.34168265978786,1187.0
360.60717185763355,1168.0
360.8726513915681,1184.0
361.1381212615652,1164.0
361.40358146759877,1177.0
361.66903200964293,1163.0
361.9344728876714,1193.0
362.1999041016582,1178.0
362.4653256515772,1197.0
362.7307375374024,1165.0
362.99613975910756,1191.0
363.2615323166668,1170.0
363.52691521005386,1142.0
363.7922884392428,1157.0
364.05765200420745,1181.0
364.32300590492173,1175.0
364.58835014135974,1191.0
364.85368471349506,1173.0
365.119009621302,1163.0
365.3843248647541,1164.0
365.6496304438256,1163.0
365.9149263584902,1143.0
366.18021260872194,1170.0
366.4454891944947,1174.0
366.7107561157824,1201.0
366.97601337255895,1162.0
367.24126096479824,1183.0
367.5064988924744,1173.0
367.77172715556105,1168.0
368.0369457540323,1160.0
368.30215468786196,1171.0
368.56735395702407,1177.0
368.83254356149246,1200.0
369.097723501241,1155.0
369.36289377624377,1177.0
369.62805438647456,1149.0
369.8932053319074,1185.0
370.1583466125161,1143.0
370.42347822827463,1169.0
370.6886001791569,1155.0
370.9537124651368,1213.0
371.2188150861884,1161.0
371.48390804228535,1168.0
371.7489913334019,1149.0
372.0140649595116,1162.0
372.2791289205887,1146.0
372.5441832166069,1164.0
372.8092278475403,1180.0
373.0742628133627,1172.0
373.339288114048,1129.0
373.6043037495702,1145.0
373.86930971990313,1154.0
374.1343060250209,1190.0
374.3992926648972,1139.0
374.664269639506,1175.0
374.9292369488214,1190.0
375.1941945928171,1171.0
375.45914257146717,1165.0
375.7240808847453,1221.0
375.98900953262586,1169.0
376.25392851508224,1151.0
376.5188378320887,1169.0
376.78373748361906,1182.0
377.0486274696473,1166.0
377.31350779014724,1183.0
377.57837844509277,1112.0
377.84323943445804,1133.0
378.10809075821663,1153.0
378.37293241634285,1175.0
378.6377644088103,1148.0
378.90258673559305,1168.0
379.167399396665,1141.0
379.4322023920001,1164.0
379.69699572157214,1169.0
379.9617793853551,1171.0
380.22655338332305,1181.0
380.4913177154497,1198.0
380.7560723817092,1131.0
381.0208173820751,1185.0
381.2855527165217,1185.0
381.55027838502275,1197.0
381.81499438755225,1166.0
382.0797007240839,1182.0
382.34439739459185,1191.0
382.60908439905006,1194.0
382.8737617374322,1152.0
383.1384294097124,1176.0
383.4030874158645,1165.0
383.66773575586234,1171.0
383.93237442968007,1134.0
384.1970034372913,1140.0
384.46162277867035,1172.0
384.7262324537907,1183.0
384.99083246262666,1152.0
385.2554228051518,1189.0
385.5200034813403,1171.0
385.78457449116604,1194.0
386.0491358346028,1130.0
386.31368751162466,1150.0
386.5782295222054,1146.0
386.8427618663191,1168.0
387.1072845439395,1139.0
387.37179755504076,1163.0
387.63630089959645,1179.0
387.9007945775808,1177.0
388.1652785889676,1147.0
388.4297529337308,1157.0
388.69421761184435,1143.0
388.95867262328204,1169.0
389.223117968018,1137.0
389.48755364602596,1167.0
389.7519796572799,1174.0
390.0163960017538,1174.0
390.28080267942147,1176.0
390.545199690257,1198.0
390.809587034234,1169.0
391.0739647113268,1185.0
391.33833272150906,1169.0
391.60269106475477,1189.0
391.86703974103773,1164.0
392.13137875033203,1169.0
392.3957080926116,1148.0
392.6600277678502,1162.0
392.92433777602184,1188.0
393.18863811710037,1147.0
393.4529287910599,1153.0
393.7172097978741,1163.0
393.98148113751716,1139.0
394.24574280996274,1156.0
394.50999481518494,1148.0
394.77423715315757,1193.0
395.0384698238546,1189.0
395.30269282725,1225.0
395.5669061633175,1181.0
395.8311098320313,1168.0
396.09530383336505,1143.0
396.35948816729285,1183.0
396.6236628337886,1143.0
396.8878278328262,1179.0
397.1519831643795,1171.0
397.4161288284224,1162.0
397.6802648249291,1128.0
397.94439115387314,1159.0
398.2085078152287,1159.0
398.4726148089696,1196.0
398.7367121350698,1138.0
399.0007997935031,1172.0
399.2648777842436,1180.0
399.52894610726514,1170.0
399.7930047625416,1180.0
400.05705375004703,1182.0
400.3210930697551,1156.0
400.58512272164006,1170.0
400.8491427056755,1161.0
401.11315302183556,1184.0
401.3771536700941,1164.0
401.6411446504251,1141.0
401.9051259628023,1140.0
402.1690976071997,1196.0
402.43305958359144,1176.0
402.69701189195115,1180.0
402.96095453225286,1162.0
403.22488750447053,1209.0
403.48881080857797,1211.0
403.75272444454924,1167.0
404.0166284123581,1143.0
404.2805227119787,1155.0
404.54440734338465,1174.0
404.80828230655015,1178.0
405.072147601449,1139.0
405.336003228055,1161.0
405.59984918634234,1163.0
405.8636854762848,1191.0
406.12751209785625,1146.0
406.3913290510306,1180.0
406.655136335782,1184.0
406.91893395208405,1166.0
407.18272189991086,1139.0
407.4465001792363,1186.0
407.7102687900344,1185.0
407.97402773227884,1190.0
408.23777700594377,1147.0
408.50151661100296,1207.0
408.76524654743037,1188.0
409.0289668152,1194.0
409.29267741428566,1149.0
409.55637834466137,1183.0
409.820069606301,1185.0
410.08375119917844,1184.0
410.3474231232677,1157.0
410.61108537854255,1155.0
410.8747379649771,1149.0
411.13838088254505,1165.0
411.40201413122054,1158.0
411.66563771097736,1180.0
411.92925162178943,1158.0
412.19285586363077,1185.0
412.4564504364752,1164.0
412.72003534029665,1158.0
412.98361057506906,1153.0
413.24717614076644,1159.0
413.51073203736246,1144.0
413.77427826483125,1160.0
414.03781482314673,1160.0
414.3013417122828,1183.0
414.5648589322133,1128.0
414.82836648291226,1164.0
415.0918643643535,1180.0
415.35535257651094,1185.0
415.6188311193587,1154.0
415.8822999928703,1158.0
416.14575919702,1155.0
416.40920873178175,1157.0
416.67264859712924,1168.0
416.9360787930365,1183.0
417.19949931947735,1160.0
417.46291017642596,1183.0
417.726311363856,1165.0
417.9897028817416,1199.0
418.2530847300564,1158.0
418.5164569087745,1190.0
418.77981941786993,1158.0
419.0431722573164,1172.0
419.3065154270879,1154.0
419.5698489271584,1178.0
419.8331727575018,1156.0
420.09648691809195,1145.0
420.3597914089029,1141.0
420.62308622990844,1156.0
420.88637138108254,1144.0
421.14964686239915,1183.0
421.4129126738321,1164.0
421.6761688153555,1195.0
421.939415286943,1164.0
422.2026520885688,1184.0
422.46587922020655,1146.0
422.7290966818304,1154.0
422.99230447341415,1165.0
423.2555025949317,1182.0
423.5186910463571,1156.0
423.78186982766414,1183.0
424.04503893882685,1133.0
424.308198379819,1150.0
424.57134815061465,1147.0
424.8344882511876,1182.0
425.09761868151185,1160.0
425.3607394415614,1169.0
425.62385053131,1161.0
425.88695195073166,1179.0
426.1500436998002,1155.0
426.4131257784898,1170.0
426.67619818677406,1163.0
426.9392609246271,1172.0
427.20231399202277,1155.0
427.46535738893505,1182.0
427.7283911153378,1161.0
427.99141517120495,1190.0
428.25442955651044,1149.0
428.5174342712281,1202.0
428.78042931533207,1168.0
429.043414688796,1162.0
429.306390391594,1170.0
429.5693564236999,1185.0
429.83231278508765,1172.0
430.0952594757312,1177.0
430.3581964956044,1143.0
430.6211238446813,1174.0
430.8840415229356,1188.0
431.14694953034143,1199.0
431.40984786687255,1171.0
431.672736532503,1187.0
431.9356155272067,1157.0
432.19848485095747,1159.0
432.4613445037294,1140.0
432.7241944854961,1158.0
432.9870347962319,1173.0
433.24986543591035,1199.0
433.5126864045056,1159.0
433.7754977019915,1188.0
434.03829932834196,1154.0
434.3010912835309,1167.0
434.56387356753226,1165.0
434.82664618032004,1213.0
435.08940912186785,1156.0
435.35216239215003,1157.0
435.6149059911402,1149.0
435.8776399188124,1149.0
436.1403641751406,1193.0
436.40307876009854,1222.0
436.6657836736603,1172.0
436.9284789157997,1199.0
437.19116448649083,1199.0
437.45384038570734,1218.0
437.71650661342346,1197.0
437.97916316961283,1225.0
438.2418100542496,1218.0
438.5044472673075,1197.0
438.7670748087606,1204.0
439.02969267858265,1212.0
439.2923008767477,1174.0
439.5548994032297,1194.0
439.8174882580024,1161.0
440.08006744103994,1174.0
440.34263695231607,1181.0
440.6051967918048,1200.0
440.86774695948003,1158.0
441.1302874553157,1190.0
441.3928182792857,1200.0
441.6553394313638,1177.0
441.9178509115243,1138.0
442.1803527197407,1178.0
442.44284485598723,1182.0
442.70532732023764,1197.0
442.9678001124659,1168.0
443.23026323264594,1194.0
443.4927166807517,1185.0
443.75516045675704,1193.0
444.0175945606359,1153.0
444.28001899236233,1198.0
444.54243375191004,1155.0
444.804838839253,1184.0
445.06723425436525,1158.0
445.3296199972206,1149.0
445.59199606779305,1145.0
445.8543624660564,1182.0
446.11671919198477,1165.0
446.37906624555177,1196.0
446.64140362673163,1179.0
446.9037313354981,1179.0
447.16604937182507,1153.0
447.42835773568675,1167.0
447.69065642705664,1159.0
447.952945445909,1187.0
448.2152247922175,1154.0
448.4774944659563,1180.0
448.73975446709903,1176.0
449.00200479562,1166.0
449.2642454514927,1155.0
449.5264764346913,1186.0
449.7886977451897,1167.0
450.0509093829618,1204.0
450.3131113479816,1148.0
450.57530364022284,1181.0
450.8374862596596,1174.0
451.0996592062656,1176.0
451.36182248001506,1156.0
451.6239760808816,1190.0
451.88612000883927,1172.0
452.1482542638621,1192.0
452.41037884592384,1182.0
452.6724937549986,1220.0
452.93459899106,1166.0
453.1966945540823,1168.0
453.4587804440391,1143.0
453.72085666090453,1174.0
453.98292320465254,1178.0
454.2449800752568,1183.0
454.5070272726916,1140.0
454.7690647969305,1158.0
455.03109264794773,1169.0
455.2931108257169,1176.0
455.5551193302122,1144.0
455.81711816140734,1179.0
456.0791073192763,1163.0
456.3410868037932,1175.0
456.6030566149317,1142.0
456.8650167526659,1171.0
457.1269672169695,1133.0
457.3889080078167,1177.0
457.6508391251812,1164.0
457.91276056903706,1185.0
458.17467233935804,1155.0
458.4365744361182,1194.0
458.6984668592915,1155.0
458.96034960885163,1165.0
459.2222226847728,1156.0
459.4840860870287,1192.0
459.74593981559343,1137.0
460.0077838704407,1180.0
460.26961825154456,1174.0
460.531442958879,1167.0
460.7932579924178,1157.0
461.05506335213505,1186.0
461.3168590380044,1181.0
461.57864505000003,1209.0
461.8404213880957,1153.0
462.1021880522655,1157.0
462.36394504248307,1146.0
462.6256923587226,1174.0
462.8874300009579,1171.0
463.1491579691629,1175.0
463.4108762633116,1133.0
463.6725848833777,1159.0
463.9342838293354,1140.0
464.19597310115836,1172.0
464.4576526988207,1172.0
464.7193226222962,1185.0
464.9809828715588,1188.0
465.2426334465826,1219.0
465.5042743473413,1151.0
465.76590557380894,1152.0
466.02752712595935,1118.0
466.2891390037666,1186.0
466.5507412072044,1162.0
466.8123337362468,1168.0
467.0739165908677,1138.0
467.33548977104107,1173.0
467.5970532767408,1174.0
467.8586071079407,1196.0
468.1201512646149,1158.0
468.3816857467371,1193.0
468.6432105542814,1195.0
468.90472568722157,1194.0
469.1662311455315,1141.0
469.4277269291855,1171.0
469.689213038157,1173.0
469.9506894724202,1177.0
470.2121562319489,1166.0
470.4736133167171,1156.0
470.73506072669863,1140.0
470.9964984618676,1161.0
471.2579265221976,1180.0
471.5193449076628,1190.0
471.78075361823716,1169.0
472.0421526538944,1150.0
472.30354201460864,1154.0
472.5649217003536,1166.0
472.8262917111034,1154.0
473.08765204683175,1164.0
473.34900270751274,1157.0
473.6103436931203,1162.0
473.8716750036281,1151.0
474.1329966390105,1160.0
474.394308599241,1162.0
474.6556108842938,1187.0
474.91690349414256,1208.0
475.1781864287615,1206.0
475.43945968812426,1137.0
475.70072327220487,1161.0
475.9619771809774,1164.0
476.2232214144155,1153.0
476.4844559724933,1147.0
476.7456808551846,1218.0
477.00689606246345,1202.0
477.2681015943036,1199.0
477.5292974506791,1151.0
477.7904836315638,1169.0
478.0516601369316,1149.0
478.3128269667566,1169.0
478.5739841210125,1161.0
478.83513159967333,1179.0
479.09626940271295,1141.0
479.3573975301054,1139.0
479.6185159818244,1136.0
479.879624757844,1168.0
480.1407238581382,1138.0
480.4018132826808,1161.0
480.6628930314457,1161.0
480.9239631044069,1187.0
481.1850235015383,1158.0
481.44607422281376,1161.0
481.70711526820736,1137.0
481.96814663769277,1208.0
482.229168331244,1189.0
482.4901803488352,1176.0
482.75118269044,1160.0
483.01217535603257,1175.0
483.2731583455865,1187.0
483.534131659076,1173.0
483.79509529647487,1159.0
484.056049257757,1207.0
484.3169935428964,1185.0
484.5779281518669,1199.0
484.83885308464255,1175.0
485.09976834119715,1177.0
485.3606739215047,1160.0
485.621569825539,1184.0
485.88245605327415,1145.0
486.1433326046839,1173.0
486.40419947974215,1193.0
486.6650566784231,1194.0
486.92590420070036,1195.0
487.18674204654803,1203.0
487.4475702159399,1184.0
487.70838870885,1178.0
487.96919752525224,1175.0
488.2299966651205,1213.0
488.4907861284287,1197.0
488.75156591515065,1220.0
489.0123360252606,1192.0
489.2730964587321,1167.0
489.5338472155393,1180.0
489.794588295656,1206.0
490.05531969905627,1193.0
490.3160414257139,1223.0
490.57675347560286,1208.0
490.83745584869695,1208.0
491.0981485449702,1176.0
491.3588315643966,1196.0
491.6195049069499,1193.0
491.88016857260425,1219.0
492.1408225613333,1176.0
492.4014668731112,1212.0
492.6621015079117,1198.0
492.92272646570876,1191.0
493.18334174647646,1181.0
493.44394735018847,1213.0
493.7045432768189,1197.0
493.9651295263416,1175.0
494.2257060987305,1202.0
494.48627299395946,1208.0
494.7468302120026,1191.0
495.00737775283346,1191.0
495.2679156164263,1176.0
495.528443802755,1174.0
495.7889623117933,1168.0
496.0494711435153,1178.0
496.30997029789484,1161.0
496.57045977490594,1185.0
496.8309395745223,1171.0
497.0914096967181,1196.0
497.3518701414669,1175.0
497.612320908743,1191.0
497.8727619985203,1169.0
498.1331934107724,1193.0
498.3936151454735,1181.0
498.65402720259743,1203.0
498.91442958211815,1164.0
499.17482228400945,1187.0
499.4352053082453,1162.0
499.6955786547999,1179.0
499.9559423236467,1185.0
500.2162963147601,1173.0
500.47664062811356,1136.0
500.7369752636813,1173.0
500.9973002214371,1161.0
501.257615501355,1163.0
501.5179211034088,1168.0
501.77821702757245,1184.0
502.03850327381997,1153.0
502.29877984212516,1189.0
502.5590467324621,1171.0
502.81930394480446,1180.0
503.0795514791264,1165.0
503.3397893354016,1155.0
503.60001751360426,1134.0
503.860236013708,1168.0
504.12044483568695,1183.0
504.3806439795151,1168.0
504.6408334451661,1121.0
504.90101323261416,1145.0
505.16118334183295,1147.0
505.42134377279655,1180.0
505.68149452547874,1157.0
505.9416355998535,1174.0
506.20176699589496,1151.0
506.4618887135767,1159.0
506.7220007528729,1150.0
506.98210311375726,1187.0
507.242195796204,1160.0
507.5022788001867,1200.0
507.7623521256795,1170.0
508.0224157726562,1173.0
508.2824697410907,1177.0
508.5425140309572,1197.0
508.80254864222934,1145.0
509.0625735748812,1185.0
509.3225888288864,1185.0
509.5825944042193,1186.0
509.8425903008535,1164.0
510.10257651876304,1172.0
510.3625530579218,1152.0
510.6225199183036,1170.0
510.8824770998827,1163.0
511.1424246026326,1180.0
511.4023624265276,1174.0
511.6622905715413,1164.0
511.9222090376479,1147.0
512.182117824821,1193.0
512.4420169330348,1179.0
512.7019063622631,1172.0
512.9617861124799,1160.0
513.2216561836591,1180.0
513.4815165757743,1183.0
513.7413672888,1191.0
514.0012083227098,1172.0
514.2610396774775,1158.0
514.5208613530772,1142.0
514.7806733494828,1188.0
515.0404756666682,1153.0
515.3002683046072,1149.0
515.5600512632741,1162.0
515.8198245426423,1194.0
516.0795881426862,1159.0
516.3393420633794,1162.0
516.5990863046959,1145.0
516.8588208666097,1163.0
517.1185457490944,1142.0
517.3782609521246,1175.0
517.6379664756736,1164.0
517.8976623197156,1186.0
518.1573484842243,1147.0
518.4170249691738,1158.0
518.676691774538,1162.0
518.9363489002908,1184.0
519.1959963464061,1151.0
519.4556341128579,1164.0
519.7152621996202,1156.0
519.9748806066664,1165.0
520.2344893339712,1140.0
520.4940883815078,1161.0
520.7536777492506,1162.0
521.0132574371734,1152.0
521.27282744525,1135.0
521.5323877734545,1162.0
521.7919384217606,1147.0
522.0514793901424,1168.0
522.3110106785737,1173.0
522.5705322870288,1188.0
522.8300442154809,1169.0
523.0895464639045,1177.0
523.3490390322734,1144.0
523.6085219205612,1139.0
523.8679951287423,1163.0
524.1274586567904,1193.0
524.3869125046795,1136.0
524.6463566723833,1183.0
524.9057911598759,1139.0
525.1652159671312,1137.0
525.424631094123,1153.0
525.6840365408256,1179.0
525.9434323072122,1195.0
526.2028183932575,1210.0
526.462194798935,1144.0
526.7215615242187,1156.0
526.9809185690825,1149.0
527.2402659335005,1158.0
527.4996036174464,1147.0
527.758931620894,1181.0
528.0182499438176,1145.0
528.2775585861909,1156.0
528.5368575479879,1143.0
528.7961468291822,1182.0
529.0554264297483,1171.0
529.3146963496596,1170.0
529.5739565888904,1132.0
529.8332071474143,1158.0
530.0924480252053,1163.0
530.3516792222375,1180.0
530.6109007384848,1173.0
530.8701125739209,1191.0
531.1293147285198,1153.0
531.3885072022557,1162.0
531.647689995102,1153.0
531.906863107033,1146.0
532.1660265380227,1161.0
532.4251802880447,1199.0
532.684324357073,1173.0
532.9434587450817,1197.0
533.2025834520446,1166.0
533.4616984779356,1160.0
533.7208038227286,1155.0
533.9798994863976,1181.0
534.2389854689164,1163.0
534.4980617702593,1165.0
534.7571283903995,1152.0
535.0161853293118,1182.0
535.2752325869694,1165.0
535.5342701633466,1181.0
535.7932980584171,1156.0
536.0523162721549,1174.0
536.3113248045341,1175.0
536.5703236555283,1170.0
536.8293128251117,1177.0
537.0882923132581,1201.0
537.3472621199415,1146.0
537.6062222451357,1161.0
537.8651726888147,1151.0
538.1241134509522,1191.0
538.3830445315224,1185.0
538.6419659304993,1180.0
538.9008776478564,1169.0
539.1597796835681,1186.0
539.4186720376078,1182.0
539.6775547099501,1210.0
539.9364277005683,1179.0
540.1952910094366,1190.0
540.4541446365288,1188.0
540.7129885818188,1200.0
540.9718228452808,1172.0
541.2306474268884,1217.0
541.4894623266158,1200.0
541.7482675444367,1206.0
542.0070630803251,1207.0
542.2658489342549,1253.0
542.5246251062,1238.0
542.7833915961344,1282.0
543.0421484040319,1255.0
543.3008955298666,1290.0
543.5596329736122,1308.0
543.8183607352429,1333.0
544.0770788147322,1339.0
544.3357872120545,1365.0
544.5944859271833,1346.0
544.8531749600928,1359.0
545.1118543107568,1338.0
545.3705239791493,1358.0
545.6291839652442,1346.0
545.8878342690153,1359.0
546.1464748904368,1332.0
546.4051058294822,1361.0
546.6637270861258,1346.0
546.9223386603413,1390.0
547.1809405521027,1366.0
547.439532761384,1388.0
547.6981152881589,1362.0
547.9566881324016,1355.0
548.2152512940858,1326.0
548.4738047731855,1311.0
548.7323485696745,1251.0
548.990882683527,1261.0
549.2494071147166,1235.0
549.5079218632175,1235.0
549.7664269290035,1225.0
550.0249223120484,1261.0
550.2834080123264,1218.0
550.5418840298111,1240.0
550.8003503644767,1216.0
551.0588070162968,1189.0
551.3172539852457,1183.0
551.575691271297,1201.0
551.8341188744248,1216.0
552.0925367946031,1248.0
552.3509450318055,1171.0
552.6093435860063,1212.0
552.8677324571792,1203.0
553.1261116452981,1226.0
553.3844811503369,1190.0
553.6428409722696,1209.0
553.9011911110703,1193.0
554.1595315667125,1192.0
554.4178623391706,1189.0
554.6761834284181,1204.0
554.9344948344292,1169.0
555.1927965571775,1184.0
555.4510885966374,1177.0
555.7093709527825,1194.0
555.9676436255867,1181.0
556.2259066150241,1206.0
556.4841599210683,1153.0
556.7424035436937,1175.0
557.0006374828738,1181.0
557.2588617385828,1194.0
557.5170763107943,1135.0
557.7752811994826,1145.0
558.0334764046214,1169.0
558.2916619261845,1167.0
558.5498377641462,1168.0
558.80800391848,1197.0
559.0661603891602,1182.0
559.3243071761603,1182.0
559.5824442794548,1158.0
559.840571699017,1178.0
560.0986894348212,1161.0
560.3567974868413,1150.0
560.6148958550509,1147.0
560.8729845394244,1165.0
561.1310635399352,1152.0
561.3891328565578,1157.0
561.6471924892656,1139.0
561.905242438033,1157.0
562.1632827028335,1160.0
562.4213132836411,1185.0
562.6793341804299,1159.0
562.9373453931737,1192.0
563.1953469218464,1157.0
563.453338766422,1166.0
563.7113209268744,1146.0
563.9692934031774,1180.0
564.227256195305,1162.0
564.4852093032314,1168.0
564.7431527269299,1134.0
565.001086466375,1190.0
565.2590105215404,1178.0
565.5169248924001,1164.0
565.7748295789277,1128.0
566.0327245810976,1163.0
566.2906098988833,1143.0
566.548485532259,1154.0
566.8063514811985,1124.0
567.0642077456757,1146.0
567.3220543256646,1127.0
567.5798912211391,1133.0
567.837718432073,1121.0
568.0955359584403,1167.0
568.3533438002152,1170.0
568.611141957371,1173.0
568.8689304298823,1138.0
569.1267092177226,1155.0
569.3844783208658,1138.0
569.6422377392861,1165.0
569.8999874729572,1171.0
570.1577275218531,1174.0
570.4154578859476,1166.0
570.6731785652148,1176.0
570.9308895596286,1121.0
571.1885908691628,1154.0
571.4462824937914,1161.0
571.7039644334882,1160.0
571.9616366882275,1137.0
572.2192992579826,1166.0
572.476952142728,1142.0
572.7345953424373,1176.0
572.9922288570845,1141.0
573.2498526866435,1177.0
573.5074668310882,1160.0
573.7650712903927,1165.0
574.0226660645308,1133.0
574.2802511534762,1164.0
574.5378265572032,1158.0
574.7953922756855,1172.0
575.052948308897,1147.0
575.3104946568117,1159.0
575.5680313194036,1147.0
575.8255582966464,1166.0
576.0830755885142,1133.0
576.3405831949808,1164.0
576.5980811160204,1166.0
576.8555693516065,1175.0
577.1130479017132,1153.0
577.3705167663146,1172.0
577.6279759453844,1160.0
577.8854254388966,1188.0
578.142865246825,1145.0
578.4002953691438,1178.0
578.6577158058266,1181.0
578.9151265568477,1173.0
579.1725276221805,1148.0
579.4299190017991,1181.0
579.6873006956779,1177.0
579.9446727037903,1180.0
580.2020350261104,1160.0
580.4593876626119,1186.0
580.7167306132691,1182.0
580.9740638780556,1203.0
581.2313874569455,1179.0
581.4887013499127,1194.0
581.746005556931,1164.0
582.0033000779746,1201.0
582.2605849130169,1199.0
582.5178600620325,1187.0
582.7751255249948,1168.0
583.0323813018779,1183.0
583.2896273926557,1164.0
583.546863797302,1176.0
583.804090515791,1174.0
584.0613075480965,1181.0
584.3185148941924,1188.0
584.5757125540524,1217.0
584.8329005276508,1198.0
585.0900788149613,1197.0
585.347247415958,1183.0
585.6044063306146,1226.0
585.8615555589049,1183.0
586.1186951008033,1179.0
586.3758249562833,1163.0
586.632945125319,1177.0
586.8900556078843,1174.0
587.1471564039532,1172.0
587.4042475134993,1163.0
587.661328936497,1189.0
587.9184006729198,1200.0
588.1754627227418,1212.0
588.432515085937,1189.0
588.6895577624791,1191.0
588.9465907523424,1194.0
589.2036140555003,1221.0
589.4606276719271,1182.0
589.7176316015966,1194.0
589.9746258444826,1191.0
590.2316104005595,1225.0
590.4885852698005,1193.0
590.7455504521802,1217.0
591.0025059476719,1178.0
591.25945175625,1178.0
591.5163878778883,1158.0
591.7733143125605,1211.0
592.0302310602409,1177.0
592.287138120903,1174.0
592.5440354945212,1176.0
592.8009231810688,1232.0
593.0578011805203,1174.0
593.3146694928492,1174.0
593.5715281180298,1159.0
593.8283770560358,1193.0
594.0852163068412,1210.0
594.3420458704198,1221.0
594.5988657467456,1194.0
594.8556759357925,1212.0
595.1124764375345,1183.0
595.3692672519454,1178.0
595.626048378999,1162.0
595.8828198186698,1193.0
596.1395815709309,1166.0
596.3963336357567,1175.0
596.6530760131212,1156.0
596.9098087029981,1198.0
597.1665317053615,1175.0
597.423245020185,1173.0
597.6799486474431,1154.0
597.9366425871091,1159.0
598.1933268391572,1182.0
598.4500014035611,1161.0
598.7066662802952,1141.0
598.963321469333,1148.0
599.2199669706486,1172.0
599.4766027842159,1192.0
599.7332289100086,1156.0
599.989845348001,1174.0
600.2464520981667,1141.0
600.50304916048,1147.0
600.7596365349144,1153.0
601.016214221444,1202.0
601.2727822200426,1193.0
601.5293405306844,1196.0
601.7858891533431,1157.0
602.0424280879928,1189.0
602.2989573346072,1167.0
602.5554768931602,1185.0
602.8119867636259,1184.0
603.0684869459783,1175.0
603.324977440191,1155.0
603.5814582462382,1168.0
603.8379293640936,1149.0
604.0943907937313,1180.0
604.3508425351251,1190.0
604.6072845882491,1186.0
604.8637169530771,1162.0
605.1201396295828,1210.0
605.3765526177406,1183.0
605.6329559175239,1183.0
605.8893495289071,1166.0
606.1457334518637,1166.0
606.402107686368,1178.0
606.6584722323936,1169.0
606.9148270899146,1169.0
607.1711722589049,1146.0
607.4275077393385,1146.0
607.6838335311891,1195.0
607.9401496344307,1141.0
608.1964560490374,1194.0
608.4527527749826,1175.0
608.709039812241,1171.0
608.965317160786,1161.0
609.2215848205915,1196.0
609.4778427916317,1173.0
609.7340910738803,1160.0
609.9903296673115,1155.0
610.2465585718988,1189.0
610.5027777876164,1194.0
610.7589873144382,1228.0
611.0151871523381,1225.0
611.2713773012898,1220.0
611.5275577612676,1274.0
611.7837285322452,1342.0
612.0398896141965,1372.0
612.2960410070956,1417.0
612.5521827109162,1425.0
612.8083147256325,1474.0
613.064437051218,1411.0
613.3205496876468,1402.0
613.5766526348931,1365.0
613.8327458929305,1344.0
614.0888294617331,1277.0
614.3449033412746,1282.0
614.6009675315292,1250.0
614.8570220324707,1249.0
615.1130668440729,1245.0
615.3691019663097,1234.0
615.6251273991553,1215.0
615.8811431425835,1217.0
616.137149196568,1175.0
616.3931455610831,1223.0
616.6491322361024,1213.0
616.9051092216001,1209.0
617.1610765175498,1200.0
617.4170341239256,1213.0
617.6729820407014,1199.0
617.9289202678511,1197.0
618.1848488053488,1157.0
618.440767653168,1181.0
618.696676811283,1182.0
618.9525762796677,1205.0
619.2084660582959,1194.0
619.4643461471414,1192.0
619.7202165461782,1174.0
619.9760772553806,1173.0
620.2319282747219,1178.0
620.4877696041765,1183.0
620.7436012437181,1193.0
620.9994231933207,1196.0
621.255235452958,1162.0
621.5110380226043,1167.0
621.7668309022332,1174.0
622.0226140918188,1201.0
622.278387591335,1191.0
622.5341514007556,1195.0
622.7899055200547,1188.0
623.045649949206,1229.0
623.3013846881836,1171.0
623.5571097369614,1180.0
623.8128250955133,1151.0
624.0685307638131,1173.0
624.3242267418348,1152.0
624.5799130295525,1195.0
624.8355896269397,1194.0
625.091256533971,1205.0
625.3469137506196,1172.0
625.6025612768598,1187.0
625.8581991126655,1187.0
626.1138272580104,1201.0
626.3694457128687,1153.0
626.6250544772142,1174.0
626.8806535510208,1153.0
627.1362429342624,1190.0
627.3918226269132,1146.0
627.6473926289466,1194.0
627.902952940337,1185.0
628.1585035610578,1183.0
628.4140444910835,1169.0
628.6695757303878,1161.0
628.9250972789445,1169.0
629.1806091367276,1171.0
629.4361113037111,1138.0
629.6916037798688,1165.0
629.9470865651747,1170.0
630.2025596596026,1184.0
630.4580230631265,1164.0
630.7134767757203,1158.0
630.9689207973582,1160.0
631.2243551280136,1178.0
631.4797797676608,1157.0
631.7351947162736,1176.0
631.990599973826,1167.0
632.2459955402916,1181.0
632.5013814156447,1169.0
632.7567575998592,1184.0
633.0121240929087,1191.0
633.2674808947676,1181.0
633.5228280054093,1140.0
633.778165424808,1163.0
634.0334931529377,1174.0
634.2888111897721,1164.0
634.5441195352853,1146.0
634.799418189451,1161.0
635.0547071522435,1143.0
635.3099864236362,1181.0
635.5652560036036,1142.0
635.8205158921191,1209.0
636.0757660891571,1176.0
636.3310065946911,1193.0
636.5862374086953,1153.0
636.8414585311433,1151.0
637.0966699620094,1141.0
637.3518717012673,1175.0
637.6070637488909,1183.0
637.8622461048542,1159.0
638.1174187691312,1153.0
638.3725817416956,1161.0
638.6277350225216,1141.0
638.8828786115829,1172.0
639.1380125088535,1165.0
639.3931367143072,1165.0
639.6482512279183,1150.0
639.9033560496601,1173.0
640.1584511795071,1170.0
640.4135366174329,1196.0
640.6686123634116,1158.0
640.923678417417,1159.0
641.1787347794229,1136.0
641.4337814494036,1148.0
641.6888184273325,1143.0
641.9438457131841,1178.0
642.1988633069319,1158.0
642.45387120855,1156.0
642.7088694180123,1124.0
642.9638579352927,1175.0
643.218836760365,1174.0
643.4738058932032,1176.0
643.7287653337813,1148.0
643.9837150820732,1146.0
644.2386551380529,1141.0
644.4935855016939,1164.0
644.7485061729708,1161.0
645.0034171518569,1166.0
645.2583184383263,1167.0
645.5132100323532,1177.0
645.7680919339113,1159.0
646.0229641429745,1211.0
646.2778266595167,1163.0
646.532679483512,1159.0
646.787522614934,1132.0
647.0423560537569,1158.0
647.2971797999546,1133.0
647.5519938535008,1161.0
647.8067982143697,1153.0
648.061592882535,1171.0
648.3163778579708,1163.0
648.5711531406508,1155.0
648.8259187305492,1130.0
649.0806746276397,1149.0
649.3354208318964,1169.0
649.5901573432931,1173.0
649.8448841618035,1158.0
650.0996012874019,1150.0
650.3543087200621,1145.0
650.6090064597581,1150.0
650.8636945064635,1172.0
651.1183728601526,1161.0
651.373041520799,1147.0
651.6277004883768,1162.0
651.8823497628601,1180.0
652.1369893442223,1174.0
652.391619232438,1165.0
652.6462394274804,1164.0
652.900849929324,1143.0
653.1554507379424,1171.0
653.4100418533096,1158.0
653.6646232753995,1151.0
653.9191950041861,1144.0
654.1737570396434,1156.0
654.428309381745,1133.0
654.6828520304651,1172.0
654.9373849857776,1166.0
655.1919082476563,1167.0
655.4464218160751,1156.0
655.7009256910083,1167.0
655.9554198724292,1154.0
656.209904360312,1181.0
656.4643791546308,1147.0
656.7188442553593,1147.0
656.9732996624715,1153.0
657.2277453759414,1171.0
657.4821813957428,1172.0
657.7366077218496,1180.0
657.9910243542358,1156.0
658.2454312928753,1162.0
658.499828537742,1139.0
658.7542160888099,1158.0
659.0085939460529,1133.0
659.2629621094449,1170.0
659.5173205789596,1151.0
659.7716693545713,1148.0
660.0260084362535,1152.0
660.2803378239805,1165.0
660.5346575177261,1148.0
660.7889675174642,1185.0
661.0432678231688,1151.0
661.2975584348135,1161.0
661.5518393523727,1154.0
661.80611057582,1152.0
662.0603721051293,1136.0
662.3146239402747,1145.0
662.56886608123,1157.0
662.8230985279693,1166.0
663.0773212804662,1125.0
663.3315343386948,1169.0
663.5857377026291,1168.0
663.839931372243,1161.0
664.0941153475102,1129.0
664.3482896284048,1157.0
664.6024542149008,1153.0
664.856609106972,1158.0
665.1107543045924,1152.0
665.3648898077357,1173.0
665.619015616376,1152.0
665.8731317304873,1171.0
666.1272381500434,1144.0
666.3813348750182,1166.0
666.6354219053856,1150.0
666.8894992411197,1161.0
667.1435668821941,1155.0
667.3976248285833,1158.0
667.6516730802605,1132.0
667.9057116372002,1142.0
668.1597404993757,1132.0
668.4137596667617,1169.0
668.6677691393315,1178.0
668.9217689170592,1161.0
669.175758999919,1126.0
669.4297393878844,1126.0
669.6837100809296,1147.0
669.9376710790283,1164.0
670.1916223821547,1148.0
670.4455639902824,1175.0
670.6994959033856,1139.0
670.9534181214381,1144.0
671.2073306444137,1154.0
671.4612334722864,1165.0
671.7151266050303,1176.0
671.9690100426193,1168.0
672.222883785027,1175.0
672.4767478322276,1176.0
672.7306021841948,1125.0
672.9844468409028,1161.0
673.2382818023254,1137.0
673.4921070684363,1164.0
673.74592263921,1128.0
673.9997285146198,1144.0
674.2535246946399,1127.0
674.5073111792441,1162.0
674.7610879684066,1153.0
675.014855062101,1144.0
675.2686124603013,1141.0
675.5223601629815,1183.0
675.7760981701155,1135.0
676.0298264816772,1154.0
676.2835450976405,1133.0
676.5372540179794,1169.0
676.7909532426677,1164.0
677.0446427716794,1149.0
677.2983226049884,1128.0
677.5519927425686,1156.0
677.805653184394,1144.0
678.0593039304384,1163.0
678.3129449806759,1137.0
678.5665763350802,1157.0
678.8201979936254,1138.0
679.0738099562853,1125.0
679.3274122230338,1134.0
679.581004793845,1180.0
679.8345876686926,1183.0
680.0881608475506,1242.0
680.3417243303932,1154.0
680.5952781171939,1162.0
680.8488222079267,1133.0
681.1023566025657,1146.0
681.3558813010847,1151.0
681.6093963034575,1163.0
681.8629016096585,1161.0
682.1163972196609,1179.0
682.3698831334393,1143.0
682.6233593509672,1172.0
682.8768258722187,1156.0
683.1302826971677,1172.0
683.3837298257879,1137.0
683.6371672580536,1170.0
683.8905949939384,1162.0
684.1440130334165,1158.0
684.3974213764615,1145.0
684.6508200230477,1160.0
684.9042089731486,1150.0
685.1575882267384,1143.0
685.4109577837909,1149.0
685.66431764428,1175.0
685.9176678081799,1162.0
686.1710082754641,1165.0
686.4243390461069,1147.0
686.6776601200819,1180.0
686.9309714973633,1161.0
687.1842731779249,1153.0
687.4375651617405,1125.0
687.6908474487841,1182.0
687.9441200390297,1153.0
688.1973829324512,1163.0
688.4506361290225,1149.0
688.7038796287175,1144.0
688.95711343151,1139.0
689.2103375373744,1160.0
689.4635519462838,1141.0
689.7167566582128,1161.0
689.9699516731353,1141.0
690.2231369910248,1166.0
690.4763126118554,1146.0
690.7294785356011,1153.0
690.982634762236,1137.0
691.2357812917336,1157.0
691.488918124068,1159.0
691.7420452592133,1148.0
691.9951626971433,1140.0
692.2482704378318,1147.0
692.5013684812528,1143.0
692.7544568273802,1139.0
693.007535476188,1151.0
693.2606044276502,1163.0
693.5136636817404,1122.0
693.7667132384327,1160.0
694.019753097701,1169.0
694.2727832595195,1142.0
694.5258037238616,1129.0
694.7788144907016,1148.0
695.0318155600133,1148.0
695.2848069317706,1160.0
695.5377886059475,1127.0
695.7907605825179,1147.0
696.0437228614558,1155.0
696.2966754427347,1156.0
696.5496183263291,1139.0
696.8025515122124,1181.0
697.0554750003589,1171.0
697.3083887907425,1152.0
697.5612928833368,1132.0
697.8141872781162,1164.0
698.0670719750542,1175.0
698.319946974125,1157.0
698.5728122753021,1141.0
698.8256678785599,1179.0
699.0785137838722,1157.0
699.3313499912126,1176.0
699.5841765005556,1122.0
699.8369933118745,1125.0
700.0898004251438,1145.0
700.3425978403369,1153.0
700.5953855574281,1146.0
700.848163576391,1163.0
701.1009318971999,1149.0
701.3536905198283,1151.0
701.6064394442504,1115.0
701.8591786704402,1140.0
702.1119081983712,1151.0
702.3646280280179,1202.0
702.6173381593538,1140.0
702.8700385923529,1149.0
703.1227293269891,1163.0
703.3754103632364,1162.0
703.6280817010688,1138.0
703.88074334046,1153.0
704.1333952813842,1120.0
704.3860375238149,1161.0
704.6386700677265,1136.0
704.8912929130926,1172.0
705.1439060598872,1166.0
705.3965095080843,1165.0
705.6491032576575,1125.0
705.9016873085812,1130.0
706.1542616608291,1141.0
706.4068263143752,1176.0
706.6593812691932,1143.0
706.9119265252572,1160.0
707.164462082541,1150.0
707.4169879410188,1143.0
707.6695041006641,1156.0
707.9220105614511,1190.0
708.1745073233536,1154.0
708.4269943863457,1159.0
708.6794717504011,1123.0
708.9319394154938,1158.0
709.1843973815979,1168.0
709.4368456486869,1186.0
709.6892842167351,1160.0
709.9417130857164,1139.0
710.1941322556045,1136.0
710.4465417263735,1165.0
710.6989414979971,1154.0
710.9513315704496,1151.0
711.2037119437045,1148.0
711.4560826177361,1162.0
711.708443592518,1165.0
711.9607948680243,1175.0
712.213136444229,1170.0
712.4654683211057,1158.0
712.7177904986287,1141.0
712.9701029767715,1196.0
713.2224057555085,1164.0
713.4746988348132,1159.0
713.7269822146599,1157.0
713.9792558950222,1186.0
714.231519875874,1171.0
714.4837741571896,1178.0
714.7360187389426,1124.0
714.9882536211069,1161.0
715.2404788036566,1159.0
715.4926942865656,1167.0
715.7449000698076,1173.0
715.9970961533567,1185.0
716.2492825371868,1165.0
716.501459221272,1189.0
716.7536262055859,1152.0
717.0057834901024,1163.0
717.2579310747959,1142.0
717.5100689596399,1180.0
717.7621971446084,1165.0
718.0143156296753,1168.0
718.2664244148144,1140.0
718.5185235,1137.0
718.7706128852058,1135.0
719.0226925704058,1160.0
719.2747625555735,1140.0
719.5268228406835,1156.0
719.7788734257092,1143.0
720.0309143106249,1129.0
720.2829454954041,1113.0
720.534966980021,1157.0
720.7869787644495,1145.0
721.0389808486634,1164.0
721.2909732326368,1147.0
721.5429559163434,1171.0
721.7949288997575,1127.0
722.0468921828524,1151.0
722.2988457656026,1163.0
722.5507896479819,1170.0
722.8027238299638,1153.0
723.0546483115228,1165.0
723.3065630926325,1127.0
723.5584681732669,1145.0
723.8103635533998,1155.0
724.0622492330054,1157.0
724.3141252120573,1160.0
724.5659914905295,1174.0
724.8178480683962,1145.0
725.0696949456309,1177.0
725.3215321222078,1138.0
725.5733595981008,1146.0
725.8251773732837,1113.0
726.0769854477305,1149.0
726.3287838214152,1140.0
726.5805724943115,1166.0
726.8323514663933,1125.0
727.084120737635,1154.0
727.3358803080099,1143.0
727.5876301774923,1145.0
727.8393703460561,1142.0
728.0911008136751,1161.0
728.3428215803233,1131.0
728.5945326459745,1178.0
728.8462340106026,1161.0
729.0979256741819,1166.0
729.3496076366858,1163.0
729.6012798980886,1165.0
729.8529424583642,1126.0
730.1045953174862,1163.0
730.3562384754288,1152.0
730.6078719321658,1167.0
730.8594956876711,1135.0
731.1111097419189,1156.0
731.3627140948826,1141.0
731.6143087465367,1186.0
731.8658936968546,1157.0
732.1174689458109,1186.0
732.3690344933786,1148.0
732.6205903395324,1158.0
732.8721364842457,1116.0
733.1236729274929,1156.0
733.3751996692475,1152.0
733.6267167094836,1164.0
733.8782240481752,1143.0
734.129721685296,1155.0
734.3812096208202,1167.0
734.6326878547214,1183.0
734.8841563869737,1132.0
735.1356152175513,1152.0
735.3870643464273,1123.0
735.6385037735766,1148.0
735.8899334989725,1126.0
736.1413535225892,1156.0
736.3927638444003,1114.0
736.6441644643801,1148.0
736.8955553825023,1143.0
737.1469365987408,1165.0
737.3983081130696,1164.0
737.6496699254626,1156.0
737.9010220358938,1135.0
738.152364444337,1158.0
738.4036971507662,1146.0
738.6550201551553,1135.0
738.9063334574782,1138.0
739.1576370577087,1140.0
739.408930955821,1133.0
739.6602151517889,1145.0
739.911489645586,1131.0
740.1627544371869,1166.0
740.4140095265649,1153.0
740.6652549136942,1150.0
740.9164905985486,1127.0
741.1677165811021,1147.0
741.4189328613287,1170.0
741.6701394392022,1167.0
741.9213363146966,1121.0
742.1725234877857,1136.0
742.4237009584436,1133.0
742.6748687266439,1154.0
742.926026792361,1129.0
743.1771751555683,1184.0
743.42831381624,1165.0
743.67944277435,1173.0
743.9305620298724,1143.0
744.1816715827807,1187.0
744.4327714330492,1160.0
744.6838615806516,1166.0
744.9349420255619,1138.0
745.186012767754,1164.0
745.4370738072018,1137.0
745.6881251438792,1156.0
745.9391667777604,1140.0
746.1901987088189,1150.0
746.4412209370289,1162.0
746.6922334623642,1168.0
746.9432362847988,1141.0
747.1942294043065,1165.0
747.4452128208612,1160.0
747.6961865344371,1148.0
747.9471505450078,1156.0
748.1981048525474,1157.0
748.4490494570298,1158.0
748.6999843584289,1160.0
748.9509095567186,1125.0
749.2018250518728,1153.0
749.4527308438654,1166.0
749.7036269326704,1173.0
749.9545133182619,1161.0
750.2053900006133,1177.0
750.4562569796991,1142.0
750.7071142554928,1153.0
750.9579618279685,1139.0
751.2087996971001,1153.0
751.4596278628615,1138.0
751.7104463252266,1158.0
751.9612550841694,1126.0
752.2120541396638,1165.0
752.4628434916835,1141.0
752.7136231402029,1141.0
752.9643930851954,1146.0
753.2151533266353,1152.0
753.4659038644963,1135.0
753.7166446987524,1150.0
753.9673758293776,1121.0
754.2180972563457,1144.0
754.4688089796306,1139.0
754.7195109992062,1148.0
754.9702033150468,1139.0
755.2208859271257,1154.0
755.4715588354173,1136.0
755.7222220398953,1149.0
755.9728755405337,1130.0
756.2235193373064,1146.0
756.4741534301871,1182.0
756.7247778191503,1181.0
756.9753925041692,1147.0
757.2259974852184,1135.0
757.4765927622713,1128.0
757.7271783353021,1145.0
757.9777542042846,1118.0
758.2283203691927,1142.0
758.4788768300004,1150.0
758.7294235866816,1178.0
758.9799606392104,1128.0
759.2304879875602,1155.0
759.4810056317056,1138.0
759.7315135716199,1159.0
759.9820118072773,1135.0
760.2325003386519,1181.0
760.4829791657174,1149.0
760.7334482884478,1134.0
760.9839077068168,1130.0
761.2343574207987,1176.0
761.484797430367,1157.0
761.735227735496,1129.0
761.9856483361594,1140.0
762.2360592323311,1175.0
762.4864604239852,1173.0
762.7368519110954,1164.0
762.987233693636,1119.0
763.2376057715804,1136.0
763.487968144903,1137.0
763.7383208135773,1169.0
763.9886637775775,1158.0
764.2389970368773,1151.0
764.4893205914509,1174.0
764.7396344412722,1177.0
764.9899385863147,1129.0
765.2402330265528,1152.0
765.4905177619603,1150.0
765.740792792511,1154.0
765.9910581181788,1110.0
766.2413137389377,1147.0
766.4915596547617,1152.0
766.7417958656245,1171.0
766.9920223715003,1142.0
767.2422391723628,1162.0
767.4924462681862,1157.0
767.742643658944,1176.0
767.9928313446105,1137.0
768.2430093251593,1164.0
768.4931776005645,1164.0
768.7433361708001,1166.0
768.9934850358397,1126.0
769.2436241956577,1158.0
769.4937536502277,1164.0
769.7438733995237,1153.0
769.9939834435195,1118.0
770.2440837821891,1143.0
770.4941744155066,1132.0
770.7442553434456,1161.0
770.9943265659803,1135.0
771.2443880830843,1150.0
771.4944398947321,1167.0
771.7444820008968,1166.0
771.9945144015531,1144.0
772.2445370966744,1139.0
772.4945500862349,1145.0
772.7445533702083,1153.0
772.9945469485688,1139.0
773.24453082129,1160.0
773.4945049883461,1155.0
773.7444694497109,1140.0
773.9944242053582,1114.0
774.2443692552622,1164.0
774.4943045993966,1157.0
774.7442302377353,1144.0
774.9941461702524,1152.0
775.2440523969217,1128.0
775.4939489177171,1150.0
775.7438357326126,1160.0
775.9937128415821,1132.0
776.2435802445996,1156.0
776.4934379416388,1141.0
776.7432859326738,1149.0
776.9931242176782,1125.0
777.2429527966265,1162.0
777.4927716694921,1145.0
777.7425808362494,1162.0
777.9923802968718,1131.0
778.2421700513336,1142.0
778.4919500996084,1148.0
778.7417204416705,1180.0
778.9914810774935,1144.0
779.2412320070515,1184.0
779.4909732303183,1133.0
779.740704747268,1170.0
779.9904265578743,1154.0
780.2401386621113,1157.0
780.4898410599528,1143.0
780.7395337513728,1161.0
780.9892167363452,1129.0
781.2388900148438,1139.0
781.4885535868427,1121.0
781.7382074523157,1139.0
781.9878516112368,1124.0
782.2374860635799,1178.0
782.4871108093189,1153.0
782.7367258484278,1149.0
782.9863311808803,1128.0
783.2359268066505,1166.0
783.4855127257123,1142.0
783.7350889380396,1185.0
783.9846554436065,1133.0
784.2342122423864,1153.0
784.483759334354,1157.0
784.7332967194824,1143.0
784.9828243977461,1121.0
785.2323423691188,1131.0
785.4818506335743,1136.0
785.7313491910869,1153.0
785.9808380416301,1120.0
786.2303171851781,1150.0
786.4797866217048,1148.0
786.7292463511839,1167.0
786.9786963735895,1133.0
787.2281366888955,1150.0
787.4775672970758,1143.0
787.7269881981043,1170.0
787.9763993919552,1143.0
788.2258008786018,1154.0
788.4751926580186,1156.0
788.7245747301793,1143.0
788.9739470950577,1118.0
789.223309752628,1136.0
789.4726627028639,1138.0
789.7220059457394,1156.0
789.9713394812284,1147.0
790.2206633093049,1165.0
790.4699774299426,1165.0
790.7192818431157,1144.0
790.9685765487978,1140.0
791.2178615469633,1162.0
791.4671368375856,1138.0
791.7164024206389,1148.0
791.9656582960971,1129.0
792.214904463934,1131.0
792.4641409241239,1136.0
792.71336767664,1136.0
792.962584721457,1124.0
793.2117920585482,1137.0
793.460989687888,1114.0
793.71017760945,1128.0
793.9593558232083,1123.0
794.2085243291367,1151.0
794.4576831272093,1165.0
794.7068322173998,1143.0
794.9559715996821,1125.0
795.2051012740304,1124.0
795.4542212404183,1126.0
795.7033314988199,1160.0
795.9524320492092,1133.0
796.2015228915599,1152.0
796.4506040258461,1130.0
796.6996754520417,1144.0
796.9487371701205,1139.0
797.1977891800564,1152.0
797.4468314818234,1155.0
797.6958640753957,1175.0
797.9448869607467,1154.0
798.1939001378507,1177.0
798.4429036066814,1144.0
798.691897367213,1148.0
798.9408814194189,1148.0
799.1898557632736,1173.0
799.4388203987506,1158.0
799.6877753258242,1160.0
799.9367205444681,1116.0
800.1856560546561,1135.0
800.4345818563623,1101.0
800.6834979495605,1138.0
800.9324043342249,1132.0
801.181301010329,1180.0
801.430187977847,1150.0
801.6790652367528,1147.0
801.9279327870203,1140.0
802.1767906286233,1118.0
802.4256387615358,1114.0
802.6744771857318,1159.0
802.9233059011851,1135.0
803.1721249078698,1159.0
803.4209342057595,1139.0
803.6697337948284,1165.0
803.9185236750504,1130.0
804.1673038463992,1136.0
804.4160743088491,1125.0
804.6648350623736,1147.0
804.913586106947,1131.0
805.1623274425428,1157.0
805.4110590691354,1151.0
805.6597809866984,1171.0
805.9084931952057,1153.0
806.1571956946314,1155.0
806.4058884849493,1148.0
806.6545715661333,1153.0
806.9032449381574,1123.0
807.1519086009955,1145.0
807.4005625546215,1161.0
807.6492067990096,1181.0
807.8978413341331,1154.0
808.1464661599663,1159.0
808.3950812764833,1138.0
808.6436866836576,1161.0
808.8922823814636,1138.0
809.1408683698746,1152.0
809.3894446488654,1145.0
809.6380112184088,1146.0
809.8865680784796,1125.0
810.1351152290515,1140.0
810.3836526700983,1163.0
810.632180401594,1163.0
810.8806984235125,1134.0
811.1292067358277,1155.0
811.3777053385134,1140.0
811.6261942315439,1163.0
811.8746734148926,1123.0
812.1231428885338,1128.0
812.3716026524414,1140.0
812.6200527065893,1167.0
812.8684930509513,1128.0
813.1169236855012,1144.0
813.3653446102134,1134.0
813.6137558250612,1164.0
813.862157330019,1146.0
814.1105491250606,1169.0
814.3589312101599,1161.0
814.6073035852907,1153.0
814.855666250427,1121.0
815.1040192055428,1131.0
815.352362450612,1119.0
815.6006959856085,1157.0
815.849019810506,1162.0
816.0973339252787,1148.0
816.3456383299005,1140.0
816.5939330243451,1183.0
816.8422180085869,1173.0
817.0904932825991,1170.0
817.3387588463564,1130.0
817.5870146998321,1136.0
817.8352608430006,1127.0
818.0834972758354,1139.0
818.3317239983104,1147.0
818.5799410104001,1164.0
818.8281483120778,1144.0
819.0763459033178,1154.0
819.3245337840938,1152.0
819.5727119543799,1144.0
819.8208804141497,1114.0
820.0690391633775,1136.0
820.3171882020371,1144.0
820.5653275301022,1136.0
820.8134571475472,1121.0
821.0615770543453,1186.0
821.3096872504713,1140.0
821.5577877358983,1140.0
821.8058785106008,1144.0
822.0539595745524,1142.0
822.3020309277271,1155.0
822.5500925700989,1162.0
822.7981445016417,1133.0
823.0461867223294,1161.0
823.2942192321357,1157.0
823.5422420310349,1146.0
823.7902551190007,1149.0
824.0382584960071,1148.0
824.2862521620278,1142.0
824.534236117037,1152.0
824.7822103610087,1132.0
825.0301748939165,1146.0
825.2781297157344,1139.0
825.5260748264366,1162.0
825.7740102259966,1140.0
826.0219359143886,1140.0
826.2698518915863,1166.0
826.5177581575639,1149.0
826.7656547122951,1126.0
827.013541555754,1138.0
827.2614186879144,1126.0
827.5092861087503,1156.0
827.7571438182355,1127.0
828.004991816344,1122.0
828.2528301030497,1141.0
828.5006586783264,1178.0
828.7484775421484,1158.0
828.9962866944892,1160.0
829.2440861353228,1145.0
829.4918758646234,1170.0
829.7396558823647,1154.0
829.9874261885204,1161.0
830.2351867830649,1139.0
830.4829376659719,1144.0
830.7306788372151,1122.0
830.9784102967689,1141.0
831.2261320446067,1143.0
831.4738440807029,1140.0
831.721546405031,1142.0
831.9692390175651,1183.0
832.2169219182792,1148.0
832.464595107147,1152.0
832.7122585841428,1144.0
832.9599123492401,1176.0
833.2075564024132,1168.0
833.4551907436356,1161.0
833.7028153728817,1128.0
833.9504302901249,1178.0
834.1980354953396,1153.0
834.4456309884994,1156.0
834.6932167695783,1134.0
834.9407928385504,1146.0
835.1883591953892,1140.0
835.4359158400691,1170.0
835.6834627725636,1148.0
835.9309999928472,1143.0
836.1785275008932,1140.0
836.4260452966759,1157.0
836.6735533801688,1145.0
836.9210517513462,1152.0
837.1685404101821,1154.0
837.4160193566502,1170.0
837.6634885907245,1113.0
837.9109481123786,1152.0
838.158397921587,1131.0
838.4058380183233,1142.0
838.6532684025613,1129.0
838.9006890742753,1132.0
839.1481000334387,1126.0
839.395501280026,1150.0
839.6428928140106,1116.0
839.8902746353668,1159.0
840.1376467440683,1129.0
840.3850091400891,1150.0
840.6323618234031,1129.0
840.8797047939842,1155.0
841.1270380518065,1141.0
841.3743615968435,1169.0
841.6216754290697,1138.0
841.8689795484584,1136.0
842.1162739549841,1141.0
842.3635586486201,1133.0
842.6108336293411,1112.0
842.8580988971204,1139.0
843.1053544519319,1112.0
843.3526002937501,1132.0
843.5998364225484,1129.0
843.8470628383009,1168.0
844.0942795409813,1138.0
844.3414865305639,1137.0
844.5886838070224,1106.0
844.8358713703307,1139.0
845.0830492204628,1146.0
845.3302173573926,1137.0
845.577375781094,1141.0
845.824524491541,1161.0
846.0716634887074,1155.0
846.318792772567,1158.0
846.5659123430942,1107.0
846.8130222002624,1126.0
847.0601223440457,1152.0
847.3072127744182,1159.0
847.5542934913535,1128.0
847.801364494826,1163.0
848.0484257848091,1189.0
848.295477361277,1166.0
848.5425192242034,1125.0
848.7895513735625,1141.0
849.0365738093279,1114.0
849.2835865314739,1124.0
849.5305895399742,1117.0
849.7775828348028,1126.0
850.0245664159336,1146.0
850.2715402833404,1131.0
850.5185044369973,1130.0
850.765458876878,1167.0
851.0124036029566,1135.0
851.2593386152071,1129.0
851.5062639136031,1122.0
851.7531794981189,1159.0
852.000085368728,1130.0
852.2469815254047,1128.0
852.4938679681228,1099.0
852.7407446968562,1145.0
852.9876117115788,1160.0
853.2344690122644,1153.0
853.4813165988874,1147.0
853.7281544714209,1157.0
853.9749826298397,1138.0
854.221801074117,1141.0
854.4686098042273,1107.0
854.715408820144,1148.0
854.9621981218415,1126.0
855.2089777092933,1164.0
855.4557475824737,1155.0
855.7025077413564,1160.0
855.9492581859151,1158.0
856.1959989161244,1158.0
856.4427299319575,1157.0
856.6894512333887,1148.0
856.9361628203918,1152.0
857.1828646929408,1139.0
857.4295568510095,1138.0
857.6762392945719,1152.0
857.9229120236021,1145.0
858.1695750380736,1150.0
858.4162283379608,1133.0
858.6628719232372,1120.0
858.909505793877,1141.0
859.1561299498538,1183.0
859.4027443911418,1123.0
859.6493491177151,1158.0
859.8959441295472,1136.0
860.1425294266122,1143.0
860.389105008884,1125.0
860.6356708763367,1149.0
860.8822270289439,1169.0
861.1287734666797,1159.0
861.375310189518,1135.0
861.6218371974327,1140.0
861.8683544903977,1147.0
862.114862068387,1150.0
862.3613599313745,1116.0
862.6078480793341,1133.0
862.8543265122397,1149.0
863.1007952300653,1174.0
863.3472542327846,1106.0
863.5937035203718,1155.0
863.8401430928006,1118.0
864.0865729500453,1134.0
864.3329930920792,1122.0
864.5794035188768,1130.0
864.8258042304117,1149.0
865.0721952266579,1175.0
865.3185765075892,1139.0
865.5649480731797,1145.0
865.8113099234033,1139.0
866.0576620582339,1162.0
866.3040044776454,1122.0
866.5503371816117,1133.0
866.7966601701067,1156.0
867.0429734431043,1178.0
867.2892770005787,1160.0
867.5355708425034,1154.0
867.7818549688525,1147.0
868.0281293796002,1130.0
868.2743940747198,1112.0
868.5206490541858,1153.0
868.766894317972,1141.0
869.0131298660519,1166.0
869.2593556984,1144.0
869.5055718149898,1168.0
869.7517782157955,1161.0
869.9979749007908,1163.0
870.24416186995,1116.0
870.4903391232464,1131.0
870.7365066606544,1141.0
870.9826644821478,1148.0
871.2288125877005,1129.0
871.4749509772863,1161.0
871.7210796508793,1137.0
871.9671986084535,1159.0
872.2133078499825,1133.0
872.4594073754406,1143.0
872.7054971848014,1122.0
872.9515772780389,1156.0
873.1976476551272,1136.0
873.44370831604,1141.0
873.6897592607512,1168.0
873.9358004892348,1176.0
874.181832001465,1150.0
874.4278537974152,1132.0
874.6738658770598,1130.0
874.9198682403724,1170.0
875.1658608873271,1141.0
875.4118438178975,1162.0
875.6578170320579,1127.0
875.9037805297821,1151.0
876.149734311044,1119.0
876.3956783758176,1130.0
876.6416127240767,1134.0
876.8875373557953,1162.0
877.1334522709471,1121.0
877.3793574695064,1136.0
877.6252529514468,1152.0
877.8711387167424,1163.0
878.1170147653671,1118.0
878.3628810972948,1144.0
878.6087377124994,1135.0
878.8545846109547,1129.0
879.1004217926348,1109.0
879.3462492575137,1141.0
879.592067005565,1149.0
879.8378750367629,1175.0
880.0836733510812,1119.0
880.3294619484939,1140.0
880.5752408289748,1128.0
880.8210099924979,1125.0
881.066769439037,1099.0
881.3125191685664,1127.0
881.5582591810595,1153.0
881.8039894764904,1158.0
882.0497100548332,1131.0
882.2954209160617,1153.0
882.5411220601501,1163.0
882.7868134870716,1159.0
883.0324951968009,1112.0
883.2781671893114,1113.0
883.5238294645773,1130.0
883.7694820225723,1140.0
884.0151248632704,1102.0
884.2607579866458,1146.0
884.5063813926721,1176.0
884.7519950813233,1166.0
884.9975990525734,1124.0
885.2431933063962,1139.0
885.4887778427656,1146.0
885.7343526616556,1166.0
885.9799177630401,1134.0
886.225473146893,1149.0
886.4710188131884,1144.0
886.7165547618998,1146.0
886.9620809930017,1122.0
887.2075975064676,1128.0
887.4531043022715,1140.0
887.6986013803873,1150.0
887.944088740789,1131.0
888.1895663834505,1165.0
888.4350343083456,1153.0
888.6804925154485,1154.0
888.9259410047329,1121.0
889.1713797761728,1112.0
889.416808829742,1125.0
889.6622281654146,1143.0
889.9076377831643,1128.0
890.1530376829652,1147.0
890.3984278647913,1169.0
890.6438083286162,1179.0
890.8891790744141,1135.0
891.1345401021588,1156.0
891.3798914118244,1149.0
891.6252330033844,1146.0
891.8705648768133,1119.0
892.1158870320844,1147.0
892.361199469172,1150.0
892.6065021880501,1152.0
892.8517951886923,1139.0
893.0970784710728,1160.0
893.3423520351654,1139.0
893.5876158809441,1135.0
893.8328700083825,1133.0
894.078114417455,1153.0
894.3233491081353,1133.0
894.5685740803972,1162.0
894.8137893342149,1141.0
895.058994869562,1143.0
895.3041906864125,1147.0
895.5493767847405,1161.0
895.7945531645198,1163.0
896.0397198257243,1173.0
896.284876768328,1145.0
896.5300239923048,1148.0
896.7751614976285,1144.0
897.0202892842732,1176.0
897.2654073522126,1144.0
897.510515701421,1163.0
897.7556143318718,1125.0
898.0007032435394,1155.0
898.2457824363973,1141.0
898.4908519104197,1141.0
898.7359116655806,1120.0
898.9809617018536,1130.0
899.226002019213,1129.0
899.4710326176322,1156.0
899.7160534970858,1117.0
899.961064657547,1136.0
900.2060660989903,1141.0
900.4510578213893,1158.0
900.696039824718,1136.0
900.9410121089505,1163.0
901.1859746740603,1154.0
901.4309275200218,1149.0
901.6758706468086,1109.0
901.9208040543947,1146.0
902.165727742754,1154.0
902.4106417118604,1173.0
902.6555459616881,1138.0
902.9004404922106,1144.0
903.1453253034022,1138.0
903.3902003952364,1163.0
903.6350657676876,1134.0
903.8799214207291,1136.0
904.1247673543356,1133.0
904.3696035684804,1167.0
904.6144300631377,1124.0
904.8592468382814,1140.0
905.1040538938853,1145.0
905.3488512299233,1129.0
905.5936388463696,1132.0
905.8384167431979,1138.0
906.0831849203821,1139.0
906.3279433778962,1150.0
906.5726921157141,1133.0
906.8174311338096,1152.0
907.0621604321569,1150.0
907.3068800107296,1153.0
907.551589869502,1132.0
907.7962900084476,1141.0
908.0409804275406,1123.0
908.2856611267548,1161.0
908.5303321060642,1136.0
908.7749933654427,1158.0
909.0196449048641,1152.0
909.2642867243025,1182.0
909.5089188237316,1137.0
909.7535412031257,1133.0
909.9981538624583,1138.0
910.2427568017035,1151.0
910.4873500208353,1139.0
910.7319335198274,1176.0
910.976507298654,1156.0
911.2210713572888,1180.0
911.4656256957059,1129.0
911.710170313879,1137.0
911.9547052117822,1151.0
912.1992303893893,1163.0
912.4437458466742,1123.0
912.6882515836111,1147.0
912.9327476001736,1175.0
913.1772338963358,1161.0
913.4217104720715,1121.0
913.6661773273547,1140.0
913.9106344621592,1142.0
914.1550818764592,1147.0
914.3995195702284,1126.0
914.6439475434407,1160.0
914.8883657960702,1144.0
915.1327743280906,1109.0
915.3771731394759,1124.0
915.6215622302001,1145.0
915.865941600237,1144.0
916.1103112495605,1132.0
916.3546711781447,1119.0
916.5990213859634,1133.0
916.8433618729905,1151.0
917.0876926392001,1134.0
917.3320136845658,1122.0
917.5763250090619,1137.0
917.820626612662,1140.0
918.0649184953402,1186.0
918.3092006570703,1145.0
918.5534730978262,1148.0
918.7977358175821,1177.0
919.0419888163115,1197.0
919.2862320939888,1156.0
919.5304656505874,1168.0
919.7746894860817,1154.0
920.0189036004452,1140.0
920.2631079936523,1110.0
920.5073026656763,1125.0
920.7514876164915,1151.0
920.995662846072,1174.0
921.2398283543914,1131.0
921.4839841414238,1157.0
921.728130207143,1158.0
921.9722665515229,1179.0
922.2163931745375,1141.0
922.4605100761607,1161.0
922.7046172563665,1153.0
922.9487147151286,1124.0
923.1928024524211,1099.0
923.436880468218,1141.0
923.680948762493,1158.0
923.9250073352201,1165.0
924.1690561863735,1145.0
924.4130953159265,1147.0
924.6571247238535,1142.0
924.9011444101284,1149.0
925.1451543747249,1127.0
925.3891546176172,1157.0
925.6331451387789,1154.0
925.8771259381843,1141.0
926.1210970158069,1135.0
926.365058371621,1139.0
926.6090100056,1138.0
926.8529519177184,1151.0
927.0968841079499,1135.0
927.3408065762685,1157.0
927.5847193226479,1134.0
927.8286223470622,1152.0
928.0725156494851,1145.0
928.3163992298909,1155.0
928.5602730882532,1139.0
928.8041372245459,1161.0
929.0479916387432,1161.0
929.2918363308189,1159.0
929.5356713007467,1145.0
929.7794965485009,1153.0
930.0233120740551,1106.0
930.2671178773835,1139.0
930.5109139584597,1183.0
930.7547003172579,1150.0
930.9984769537518,1129.0
931.2422438679154,1168.0
931.4860010597228,1162.0
931.7297485291476,1169.0
931.9734862761641,1133.0
932.2172143007458,1134.0
932.4609326028669,1160.0
932.7046411825013,1133.0
932.9483400396227,1128.0
933.1920291742055,1137.0
933.435708586223,1161.0
933.6793782756496,1190.0
933.923038242459,1116.0
934.1666884866252,1147.0
934.410329008122,1141.0
934.6539598069236,1164.0
934.8975808830033,1137.0
935.1411922363358,1138.0
935.3847938668946,1137.0
935.6283857746537,1137.0
935.8719679595871,1135.0
936.1155404216684,1148.0
936.3591031608719,1172.0
936.6026561771713,1160.0
936.8461994705405,1144.0
937.0897330409537,1153.0
937.3332568883845,1150.0
937.5767710128072,1155.0
937.8202754141951,1128.0
938.0637700925228,1157.0
938.3072550477636,1122.0
938.550730279892,1136.0
938.7941957888816,1116.0
939.0376515747062,1158.0
939.28109763734,1164.0
939.5245339767569,1141.0
939.7679605929306,1137.0
940.0113774858352,1157.0
940.2547846554446,1168.0
940.4981821017326,1149.0
940.7415698246733,1127.0
940.9849478242404,1149.0
941.228316100408,1172.0
941.4716746531501,1186.0
941.7150234824403,1136.0
941.9583625882528,1140.0
942.2016919705615,1134.0
942.4450116293402,1137.0
942.6883215645629,1131.0
942.9316217762034,1132.0
943.1749122642358,1154.0
943.4181930286338,1143.0
943.6614640693717,1121.0
943.9047253864229,1138.0
944.1479769797618,1147.0
944.391218849362,1139.0
944.6344509951975,1099.0
944.8776734172422,1141.0
945.1208861154702,1146.0
945.3640890898554,1149.0
945.6072823403713,1123.0
945.8504658669924,1137.0
946.0936396696923,1143.0
946.3368037484449,1128.0
946.5799581032242,1112.0
946.8231027340042,1145.0
947.0662376407586,1160.0
947.3093628234615,1189.0
947.5524782820869,1140.0
947.7955840166084,1161.0
948.0386800270002,1133.0
948.2817663132361,1176.0
948.5248428752901,1111.0
948.7679097131361,1122.0
949.0109668267479,1134.0
949.2540142160996,1139.0
949.4970518811649,1129.0
949.740079821918,1170.0
949.9830980383325,1163.0
950.2261065303827,1185.0
950.4691052980422,1141.0
950.7120943412851,1132.0
950.9550736600852,1153.0
951.1980432544165,1161.0
951.4410031242528,1134.0
951.6839532695682,1152.0
951.9268936903366,1167.0
952.1698243865318,1159.0
952.4127453581277,1117.0
952.6556566050984,1132.0
952.8985581274177,1123.0
953.1414499250594,1139.0
953.3843319979977,1108.0
953.6272043462063,1146.0
953.8700669696592,1118.0
954.1129198683304,1148.0
954.3557630421936,1132.0
954.598596491223,1143.0
954.8414202153923,1140.0
955.0842342146755,1155.0
955.3270384890466,1146.0
955.5698330384793,1152.0
955.8126178629477,1133.0
956.0553929624257,1148.0
956.2981583368872,1152.0
956.5409139863061,1174.0
956.7836599106564,1139.0
957.0263961099118,1161.0
957.2691225840464,1142.0
957.5118393330342,1166.0
957.754546356849,1156.0
957.9972436554647,1160.0
958.2399312288552,1115.0
958.4826090769947,1144.0
958.7252771998567,1161.0
958.9679355974155,1133.0
959.2105842696445,1129.0
959.4532232165183,1150.0
959.6958524380103,1161.0
959.9384719340945,1146.0
960.1810817047451,1123.0
960.4236817499358,1149.0
960.6662720696406,1130.0
960.9088526638333,1156.0
961.1514235324878,1121.0
961.3939846755784,1123.0
961.6365360930786,1125.0
961.8790777849624,1158.0
962.1216097512037,1140.0
962.3641319917767,1137.0
962.606644506655,1164.0
962.8491472958127,1180.0
963.0916403592237,1124.0
963.3341236968618,1140.0
963.5765973087009,1143.0
963.8190611947151,1150.0
964.0615153548783,1139.0
964.3039597891644,1141.0
964.5463944975472,1141.0
964.7888194800006,1167.0
965.0312347364988,1135.0
965.2736402670155,1140.0
965.5160360715246,1158.0
965.7584221500001,1146.0
966.0007985024159,1111.0
966.243165128746,1144.0
966.485522028964,1146.0
966.7278692030444,1175.0
966.9702066509604,1134.0
967.2125343726866,1128.0
967.4548523681965,1136.0
967.6971606374641,1144.0
967.9394591804636,1140.0
968.1817479971685,1145.0
968.4240270875529,1136.0
968.6662964515907,1145.0
968.908556089256,1141.0
969.1508060005223,1156.0
969.3930461853639,1142.0
969.6352766437547,1146.0
969.8774973756683,1145.0
970.119708381079,1155.0
970.3619096599606,1156.0
970.6041012122869,1142.0
970.846283038032,1092.0
971.0884551371696,1132.0
971.3306175096737,1122.0
971.5727701555184,1118.0
971.8149130746775,1129.0
972.0570462671247,1149.0
972.2991697328343,1157.0
972.54128347178,1161.0
972.7833874839358,1118.0
973.0254817692755,1161.0
973.2675663277731,1198.0
973.5096411594027,1170.0
973.7517062641379,1125.0
973.9937616419528,1162.0
974.2358072928213,1162.0
974.4778432167172,1171.0
974.7198694136146,1126.0
974.9618858834873,1139.0
975.2038926263093,1145.0
975.4458896420545,1157.0
975.6878769306968,1125.0
975.9298544922101,1138.0
976.1718223265684,1147.0
976.4137804337454,1124.0
976.6557288137154,1130.0
976.8976674664519,1173.0
977.1395963919293,1143.0
977.381515590121,1140.0
977.6234250610012,1122.0
977.8653248045439,1130.0
978.1072148207228,1153.0
978.349095109512,1136.0
978.5909656708852,1108.0
978.8328265048167,1133.0
979.0746776112799,1162.0
979.316518990249,1155.0
979.5583506416982,1119.0
979.8001725656011,1156.0
980.0419847619316,1165.0
980.2837872306635,1153.0
980.5255799717712,1131.0
980.7673629852283,1130.0
981.0091362710086,1145.0
981.2508998290862,1158.0
981.4926536594351,1141.0
981.734397762029,1152.0
981.9761321368418,1134.0
982.2178567838478,1152.0
982.4595717030206,1114.0
982.7012768943342,1157.0
982.9429723577622,1139.0
983.1846580932793,1174.0
983.4263341008586,1154.0
983.6680003804744,1159.0
983.9096569321008,1155.0
984.1513037557114,1164.0
984.3929408512804,1110.0
984.6345682187812,1116.0
984.8761858581883,1152.0
985.1177937694753,1154.0
985.3593919526161,1120.0
985.6009804075849,1139.0
985.8425591343554,1148.0
986.0841281329017,1144.0
986.3256874031972,1136.0
986.5672369452166,1171.0
986.8087767589334,1152.0
987.0503068443215,1153.0
987.2918272013546,1122.0
987.5333378300072,1129.0
987.7748387302529,1147.0
988.0163299020653,1185.0
988.257811345419,1123.0
988.4992830602876,1158.0
988.7407450466447,1139.0
988.9821973044646,1132.0
989.2236398337212,1132.0
989.4650726343884,1165.0
989.7064957064399,1139.0
989.94790904985,1152.0
990.1893126645923,1160.0
990.4307065506409,1168.0
990.6720907079695,1147.0
990.9134651365523,1164.0
991.1548298363631,1135.0
991.3961848073757,1153.0
991.6375300495642,1165.0
991.8788655629025,1172.0
992.1201913473645,1148.0
992.3615074029238,1156.0
992.6028137295548,1140.0
992.8441103272314,1161.0
993.0853971959273,1097.0
993.3266743356161,1138.0
993.5679417462725,1160.0
993.80919942787,1152.0
994.0504473803821,1141.0
994.2916856037835,1144.0
994.5329140980479,1149.0
994.774132863149,1164.0
995.0153418990604,1124.0
995.256541205757,1138.0
995.4977307832119,1152.0
995.7389106313991,1156.0
995.980080750293,1137.0
996.2212411398671,1139.0
996.4623918000955,1141.0
996.7035327309518,1178.0
996.9446639324104,1159.0
997.185785404445,1134.0
997.4268971470293,1108.0
997.6679991601377,1148.0
997.9090914437438,1129.0
998.1501739978215,1137.0
998.3912468223447,1132.0
998.6323099172876,1148.0
998.8733632826239,1143.0
999.1144069183275,1152.0
999.3554408243724,1144.0
999.5964650007325,1166.0
999.8374794473817,1137.0
1000.0784841642937,1178.0
1000.319479151443,1164.0
1000.5604644088031,1141.0
1000.8014399363481,1136.0
1001.0424057340515,1160.0
1001.2833618018876,1146.0
1001.5243081398305,1168.0
1001.7652447478536,1151.0
1002.0061716259313,1144.0
1002.2470887740373,1149.0
1002.4879961921455,1158.0
1002.7288938802296,1128.0
1002.9697818382641,1161.0
1003.2106600662227,1179.0
1003.4515285640788,1163.0
1003.6923873318069,1114.0
1003.9332363693809,1118.0
1004.1740756767746,1144.0
1004.4149052539616,1166.0
1004.6557251009162,1140.0
1004.8965352176125,1144.0
1005.137335604024,1157.0
1005.3781262601246,1152.0
1005.6189071858887,1124.0
1005.8596783812898,1124.0
1006.1004398463017,1128.0
1006.3411915808988,1149.0
1006.5819335850549,1114.0
1006.8226658587437,1144.0
1007.0633884019389,1148.0
1007.3041012146151,1173.0
1007.5448042967458,1157.0
1007.7854976483048,1143.0
1008.0261812692664,1153.0
1008.2668551596043,1173.0
1008.5075193192926,1147.0
1008.7481737483046,1140.0
1008.9888184466149,1152.0
1009.2294534141973,1140.0
1009.4700786510253,1123.0
1009.7106941570735,1129.0
1009.9512999323154,1137.0
1010.1918959767249,1155.0
1010.4324822902759,1145.0
1010.6730588729425,1155.0
1010.9136257246987,1141.0
1011.1541828455182,1156.0
1011.3947302353747,1125.0
1011.6352678942427,1143.0
1011.8757958220957,1145.0
1012.1163140189077,1169.0
1012.3568224846528,1124.0
1012.5973212193047,1149.0
1012.8378102228374,1174.0
1013.0782894952248,1143.0
1013.3187590364408,1113.0
1013.5592188464595,1129.0
1013.7996689252545,1152.0
1014.0401092728,1157.0
1014.2805398890699,1140.0
1014.520960774038,1134.0
1014.761371927678,1137.0
1015.0017733499644,1146.0
1015.2421650408708,1131.0
1015.4825470003708,1147.0
1015.7229192284389,1142.0
1015.9632817250488,1148.0
1016.2036344901744,1128.0
1016.4439775237893,1145.0
1016.6843108258679,1130.0
1016.924634396384,1161.0
1017.1649482353116,1111.0
1017.4052523426242,1130.0
1017.645546718296,1161.0
1017.8858313623012,1152.0
1018.1261062746131,1137.0
1018.3663714552061,1168.0
1018.6066269040542,1159.0
1018.846872621131,1130.0
1019.0871086064102,1108.0
1019.3273348598664,1130.0
1019.5675513814731,1166.0
1019.807758171204,1169.0
1020.0479552290336,1139.0
1020.2881425549355,1143.0
1020.5283201488836,1137.0
1020.7684880108518,1159.0
1021.0086461408142,1114.0
1021.2487945387445,1126.0
1021.4889332046166,1147.0
1021.7290621384047,1134.0
1021.9691813400827,1117.0
1022.2092908096243,1127.0
1022.4493905470034,1128.0
1022.689480552194,1161.0
1022.9295608251703,1132.0
1023.1696313659058,1136.0
1023.4096921743744,1158.0
1023.6497432505504,1160.0
1023.8897845944075,1136.0
1024.1298162059197,1149.0
1024.3698380850608,1146.0
1024.6098502318048,1165.0
1024.8498526461256,1130.0
1025.089845327997,1175.0
1025.3298282773933,1157.0
1025.5698014942882,1156.0
1025.809764978655,1120.0
1026.0497187304688,1152.0
1026.2896627497028,1165.0
1026.529597036331,1165.0
1026.7695215903273,1125.0
1027.0094364116655,1150.0
1027.24934150032,1125.0
1027.4892368562644,1135.0
1027.7291224794726,1128.0
1027.9689983699186,1147.0
1028.2088645275765,1145.0
1028.4487209524195,1143.0
1028.6885676444224,1138.0
1028.9284046035589,1132.0
1029.1682318298024,1162.0
1029.4080493231272,1141.0
1029.6478570835075,1123.0
1029.8876551109165,1124.0
1030.1274434053287,1154.0
1030.367221966718,1161.0
1030.6069907950582,1145.0
1030.846749890323,1153.0
1031.0864992524866,1154.0
1031.326238881523,1154.0
1031.565968777406,1140.0
1031.8056889401093,1163.0
1032.0453993696071,1138.0
1032.2851000658732,1164.0
1032.5247910288815,1127.0
1032.7644722586058,1158.0
1033.0041437550206,1152.0
1033.2438055180992,1157.0
1033.4834575478158,1121.0
1033.7230998441441,1161.0
1033.9627324070584,1126.0
1034.2023552365324,1136.0
1034.4419683325395,1124.0
1034.6815716950546,1148.0
1034.921165324051,1144.0
1035.160749219503,1146.0
1035.400323381384,1142.0
1035.6398878096684,1127.0
1035.8794425043295,1121.0
1036.118987465342,1154.0
1036.3585226926796,1136.0
1036.598048186316,1153.0
1036.8375639462251,1151.0
1037.0770699723807,1187.0
1037.3165662647575,1152.0
1037.5560528233286,1161.0
1037.795529648068,1162.0
1038.03499673895,1141.0
1038.2744540959484,1121.0
1038.513901719037,1129.0
1038.7533396081897,1146.0
1038.9927677633805,1156.0
1039.2321861845835,1125.0
1039.471594871772,1137.0
1039.7109938249207,1131.0
1039.950383044003,1156.0
1040.1897625289932,1142.0
1040.429132279865,1154.0
1040.6684922965921,1186.0
1040.9078425791488,1169.0
1041.147183127509,1139.0
1041.3865139416462,1157.0
1041.6258350215348,1146.0
1041.8651463671483,1126.0
1042.1044479784612,1133.0
1042.3437398554468,1150.0
1042.5830219980796,1143.0
1042.822294406333,1136.0
1043.0615570801808,1105.0
1043.3008100195977,1154.0
1043.5400532245571,1164.0
1043.7792866950329,1165.0
1044.0185104309994,1147.0
1044.2577244324298,1149.0
1044.496928699299,1146.0
1044.7361232315795,1146.0
1044.975308029247,1115.0
1045.2144830922741,1133.0
1045.4536484206349,1131.0
1045.6928040143039,1141.0
1045.9319498732546,1118.0
1046.171085997461,1139.0
1046.410212386897,1156.0
1046.6493290415365,1180.0
1046.8884359613537,1144.0
1047.1275331463219,1147.0
1047.3666205964155,1151.0
1047.6056983116084,1190.0
1047.8447662918745,1148.0
1048.0838245371874,1168.0
1048.3228730475216,1148.0
1048.5619118228506,1161.0
1048.8009408631483,1130.0
1049.0399601683887,1130.0
1049.2789697385458,1126.0
1049.5179695735935,1143.0
1049.7569596735057,1136.0
1049.995940038256,1105.0
1050.2349106678193,1140.0
1050.4738715621686,1148.0
1050.7128227212777,1119.0
1050.9517641451212,1137.0
1051.1906958336726,1137.0
1051.429617786906,1149.0
1051.6685300047955,1123.0
1051.9074324873145,1165.0
1052.1463252344374,1134.0
1052.3852082461374,1151.0
1052.6240815223896,1139.0
1052.862945063167,1144.0
1053.101798868444,1140.0
1053.3406429381937,1154.0
1053.579477272391,1110.0
1053.8183018710095,1121.0
1054.0571167340227,1130.0
1054.295921861405,1150.0
1054.5347172531306,1127.0
1054.7735029091725,1150.0
1055.0122788295055,1146.0
1055.2510450141028,1141.0
1055.489801462939,1097.0
1055.7285481759875,1138.0
1055.9672851532225,1137.0
1056.2060123946183,1161.0
1056.4447299001479,1118.0
1056.6834376697855,1139.0
1056.9221357035053,1125.0
1057.1608240012813,1147.0
1057.399502563087,1121.0
1057.6381713888966,1138.0
1057.8768304786843,1149.0
1058.1154798324235,1152.0
1058.3541194500883,1145.0
1058.5927493316526,1138.0
1058.8313694770904,1138.0
1059.0699798863757,1164.0
1059.308580559482,1124.0
1059.5471714963837,1143.0
1059.7857526970547,1118.0
1060.0243241614683,1134.0
1060.2628858895991,1115.0
1060.5014378814212,1151.0
1060.7399801369077,1140.0
1060.9785126560328,1156.0
1061.217035438771,1144.0
1061.4555484850957,1160.0
1061.6940517949806,1160.0
1061.9325453684,1144.0
1062.171029205328,1117.0
1062.4095033057379,1123.0
1062.6479676696042,1159.0
1062.8864222969007,1141.0
1063.124867187601,1127.0
1063.3633023416792,1161.0
1063.6017277591095,1159.0
1063.8401434398654,1155.0
1064.0785493839212,1145.0
1064.3169455912503,1166.0
1064.5553320618271,1161.0
1064.7937087956254,1175.0
1065.0320757926193,1138.0
1065.2704330527822,1132.0
1065.5087805760884,1155.0
1065.7471183625119,1145.0
1065.985446412026,1114.0
1066.2237647246056,1148.0
1066.462073300224,1155.0
1066.700372138855,1148.0
1066.9386612404726,1120.0
1067.1769406050512,1154.0
1067.4152102325645,1146.0
1067.653470122986,1142.0
1067.8917202762898,1139.0
1068.1299606924504,1155.0
1068.3681913714408,1150.0
1068.6064123132355,1179.0
1068.8446235178085,1159.0
1069.0828249851334,1158.0
1069.3210167151844,1141.0
1069.5591987079351,1171.0
1069.7973709633598,1145.0
1070.035533481432,1187.0
1070.2736862621255,1153.0
1070.511829305415,1180.0
1070.749962611274,1146.0
1070.9880861796762,1154.0
1071.2262000105954,1145.0
1071.4643041040065,1122.0
1071.7023984598825,1129.0
1071.940483078197,1150.0
1072.1785579589252,1177.0
1072.4166231020401,1145.0
1072.6546785075159,1118.0
1072.8927241753263,1160.0
1073.1307601054455,1147.0
1073.368786297847,1148.0
1073.6068027525052,1129.0
1073.8448094693938,1172.0
1074.0828064484867,1134.0
1074.3207936897581,1147.0
1074.5587711931814,1120.0
1074.7967389587309,1146.0
1075.0346969863804,1176.0
1075.2726452761037,1177.0
1075.5105838278753,1129.0
1075.7485126416684,1155.0
1075.9864317174572,1161.0
1076.2243410552155,1180.0
1076.4622406549177,1142.0
1076.7001305165372,1130.0
1076.938010640048,1154.0
1077.1758810254241,1156.0
1077.4137416726396,1140.0
1077.6515925816682,1131.0
1077.8894337524835,1132.0
1078.1272651850602,1130.0
1078.3650868793718,1123.0
1078.6028988353924,1162.0
1078.840701053095,1148.0
1079.078493532455,1177.0
1079.3162762734453,1145.0
1079.55404927604,1157.0
1079.7918125402132,1155.0
1080.029566065939,1177.0
1080.267309853191,1144.0
1080.5050439019428,1151.0
1080.742768212169,1155.0
1080.9804827838434,1172.0
1081.2181876169393,1147.0
1081.4558827114315,1144.0
1081.6935680672932,1139.0
1081.931243684499,1149.0
1082.1689095630218,1145.0
1082.4065657028366,1152.0
1082.6442121039167,1160.0
1082.8818487662363,1176.0
1083.1194756897692,1137.0
1083.3570928744894,1153.0
1083.5947003203703,1142.0
1083.8322980273867,1152.0
1084.069885995512,1118.0
1084.3074642247202,1147.0
1084.5450327149854,1153.0
1084.782591466281,1155.0
1085.0201404785814,1139.0
1085.2576797518607,1163.0
1085.495209286092,1150.0
1085.73272908125,1144.0
1085.9702391373082,1116.0
1086.207739454241,1141.0
1086.4452300320218,1157.0
1086.6827108706245,1162.0
1086.9201819700238,1141.0
1087.1576433301923,1154.0
1087.3950949511052,1168.0
1087.632536832736,1154.0
1087.869968975058,1134.0
1088.1073913780458,1151.0
1088.3448040416731,1149.0
1088.582206965914,1154.0
1088.8196001507426,1145.0
1089.056983596132,1146.0
1089.294357302057,1142.0
1089.531721268491,1168.0
1089.769075495408,1130.0
1090.006419982782,1132.0
1090.243754730587,1151.0
1090.4810797387968,1162.0
1090.7183950073852,1134.0
1090.9557005363265,1134.0
1091.1929963255945,1139.0
1091.4302823751627,1149.0
1091.6675586850054,1135.0
1091.9048252550967,1147.0
1092.14208208541,1142.0
1092.3793291759196,1153.0
1092.6165665265992,1109.0
1092.853794137423,1132.0
1093.0910120083645,1137.0
1093.3282201393981,1145.0
1093.5654185304975,1135.0
1093.8026071816366,1132.0
1094.0397860927894,1140.0
1094.2769552639295,1137.0
1094.5141146950314,1118.0
1094.7512643860684,1153.0
1094.9884043370148,1152.0
1095.2255345478445,1145.0
1095.4626550185314,1120.0
1095.699765749049,1154.0
1095.936866739372,1158.0
1096.1739579894738,1160.0
1096.4110394993286,1137.0
1096.6481112689096,1137.0
1096.8851732981918,1157.0
1097.1222255871487,1149.0
1097.3592681357536,1133.0
1097.596300943981,1158.0
1097.8333240118054,1155.0
1098.0703373391996,1166.0
1098.3073409261378,1138.0
1098.5443347725945,1162.0
1098.781318878543,1162.0
1099.0182932439575,1168.0
1099.255257868812,1123.0
1099.4922127530801,1127.0
1099.729157896736,1139.0
1099.9660932997535,1133.0
1100.2030189621066,1140.0
1100.4399348837692,1144.0
1100.6768410647155,1154.0
1100.9137375049186,1180.0
1101.1506242043533,1112.0
1101.387501162993,1166.0
1101.6243683808113,1167.0
1101.8612258577834,1195.0
1102.0980735938822,1129.0
1102.3349115890817,1139.0
1102.5717398433558,1147.0
1102.8085583566788,1165.0
1103.0453671290243,1155.0
1103.2821661603664,1147.0
1103.518955450679,1154.0
1103.7557349999358,1177.0
1103.9925048081109,1118.0
1104.2292648751782,1145.0
1104.4660152011118,1141.0
1104.7027557858853,1154.0
1104.9394866294726,1121.0
1105.176207731848,1154.0
1105.4129190929852,1158.0
1105.649620712858,1158.0
1105.8863125914404,1139.0
1106.1229947287065,1137.0
1106.35966712463,1158.0
1106.596329779185,1153.0
1106.832982692345,1152.0
1107.0696258640846,1182.0
1107.3062592943775,1193.0
1107.542882983197,1173.0
1107.7794969305178,1138.0
1108.0161011363134,1140.0
1108.252695600558,1150.0
1108.4892803232249,1192.0
1108.7258553042889,1122.0
1108.9624205437235,1128.0
1109.1989760415024,1138.0
1109.4355217976,1179.0
1109.67205781199,1123.0
1109.908584084646,1151.0
1110.1451006155423,1148.0
1110.3816074046526,1146.0
1110.6181044519512,1133.0
1110.8545917574115,1144.0
1111.0910693210078,1161.0
1111.327537142714,1163.0
1111.563995222504,1144.0
1111.8004435603514,1157.0
1112.0368821562304,1148.0
1112.273311010115,1194.0
1112.509730121979,1156.0
1112.7461394917962,1171.0
1112.9825391195404,1164.0
1113.2189290051863,1169.0
1113.4553091487069,1152.0
1113.6916795500767,1137.0
1113.9280402092693,1145.0
1114.1643911262588,1174.0
1114.400732301019,1129.0
1114.637063733524,1140.0
1114.8733854237478,1144.0
1115.1096973716635,1172.0
1115.3459995772462,1156.0
1115.582292040469,1134.0
1115.8185747613063,1149.0
1116.0548477397315,1186.0
1116.291110975719,1140.0
1116.5273644692425,1135.0
1116.7636082202757,1137.0
1116.9998422287933,1157.0
1117.2360664947685,1122.0
1117.4722810181756,1150.0
1117.7084857989878,1133.0
1117.94468083718,1150.0
1118.1808661327257,1114.0
1118.4170416855989,1133.0
1118.653207495773,1160.0
1118.8893635632223,1171.0
1119.1255098879212,1129.0
1119.3616464698428,1148.0
1119.5977733089617,1143.0
1119.8338904052516,1143.0
1120.0699977586862,1137.0
1120.3060953692393,1122.0
1120.5421832368854,1112.0
