Wavelength (nm),Intensity
194.9648667,1136.0
195.23630391108566,1046.0
195.50773147432525,1038.0
195.77914938969263,1007.0
196.0505576571618,1035.0
196.32195627670666,1107.0
196.59334524830112,1143.0
196.86472457191908,1132.0
197.13609424753452,1143.0
197.4074542751213,1141.0
197.67880465465336,1144.0
197.9501453861046,1168.0
198.221476469449,1157.0
198.49279790466042,1111.0
198.7641096917128,1143.0
199.03541183058002,1140.0
199.3067043212361,1187.0
199.5779871636549,1155.0
199.84926035781032,1175.0
200.12052390367631,1152.0
200.3917778012268,1177.0
200.66302205043567,1169.0
200.93425665127685,1190.0
201.20548160372428,1199.0
201.4766969077519,1169.0
201.74790256333358,1168.0
202.01909857044328,1172.0
202.29028492905485,1164.0
202.56146163914232,1185.0
202.83262870067955,1166.0
203.10378611364044,1178.0
203.37493387799896,1189.0
203.64607199372895,1180.0
203.91720046080442,1170.0
204.18831927919925,1177.0
204.45942844888737,1196.0
204.73052796984268,1193.0
205.0016178420391,1147.0
205.2726980654506,1176.0
205.54376864005107,1185.0
205.81482956581436,1191.0
206.08588084271452,1167.0
206.3569224707254,1196.0
206.6279544498209,1195.0
206.89897677997493,1207.0
207.1699894611615,1169.0
207.44099249335446,1187.0
207.71198587652776,1193.0
207.9829696106553,1196.0
208.25394369571094,1170.0
208.52490813166872,1193.0
208.79586291850254,1193.0
209.0668080561862,1203.0
209.33774354469375,1193.0
209.60866938399909,1163.0
209.87958557407612,1186.0
210.15049211489873,1193.0
210.42138900644082,1187.0
210.69227624867642,1166.0
210.96315384157936,1182.0
211.2340217851236,1186.0
211.504880079283,1144.0
211.77572872403158,1169.0
212.0465677193432,1186.0
212.31739706519178,1190.0
212.58821676155122,1170.0
212.8590268083955,1192.0
213.1298272056985,1169.0
213.40061795343414,1193.0
213.67139905157634,1167.0
213.94217050009902,1190.0
214.21293229897614,1162.0
214.48368444818158,1168.0
214.75442694768924,1159.0
215.0251597974731,1196.0
215.29588299750702,1187.0
215.56659654776496,1179.0
215.83730044822082,1146.0
216.10799469884853,1179.0
216.378679299622,1187.0
216.64935425051522,1208.0
216.92001955150198,1168.0
217.19067520255626,1158.0
217.46132120365203,1170.0
217.73195755476314,1190.0
218.00258425586358,1155.0
218.27320130692718,1173.0
218.54380870792792,1186.0
218.81440645883973,1224.0
219.0849945596365,1170.0
219.35557301029212,1210.0
219.6261418107806,1173.0
219.8967009610758,1176.0
220.16725046115164,1152.0
220.43779031098202,1177.0
220.70832051054094,1183.0
220.97884105980225,1155.0
221.2493519587399,1144.0
221.5198532073278,1193.0
221.79034480553983,1197.0
222.06082675335,1214.0
222.33129905073216,1156.0
222.60176169766024,1175.0
222.87221469410818,1170.0
223.14265804004987,1195.0
223.41309173545932,1172.0
223.6835157803103,1169.0
223.95393017457684,1184.0
224.22433491823284,1183.0
224.4947300112522,1170.0
224.76511545360884,1201.0
225.0354912452767,1198.0
225.3058573862297,1197.0
225.57621387644173,1155.0
225.84656071588677,1195.0
226.11689790453866,1188.0
226.3872254423714,1227.0
226.65754332935884,1150.0
226.92785156547495,1144.0
227.1981501506936,1143.0
227.46843908498877,1173.0
227.7387183683344,1186.0
228.0089880007043,1178.0
228.27924798207246,1152.0
228.54949831241277,1200.0
228.8197389916992,1168.0
229.08997001990565,1199.0
229.36019139700602,1182.0
229.63040312297423,1186.0
229.90060519778424,1161.0
230.17079762140995,1187.0
230.44098039382527,1175.0
230.71115351500407,1196.0
230.98131698492037,1166.0
231.25147080354805,1174.0
231.52161497086098,1149.0
231.79174948683314,1202.0
232.06187435143846,1178.0
232.33198956465083,1198.0
232.60209512644417,1198.0
232.87219103679237,1193.0
233.1422772956694,1172.0
233.41235390304922,1199.0
233.68242085890563,1176.0
233.95247816321262,1191.0
234.22252581594412,1182.0
234.49256381707403,1195.0
234.7625921665763,1155.0
235.0326108644248,1160.0
235.30261991059345,1150.0
235.57261930505626,1180.0
235.84260904778702,1172.0
236.11258913875972,1187.0
236.3825595779483,1154.0
236.65252036532667,1182.0
236.92247150086874,1158.0
237.19241298454838,1189.0
237.46234481633957,1168.0
237.73226699621623,1190.0
238.00217952415227,1181.0
238.27208240012158,1213.0
238.54197562409814,1155.0
238.8118591960558,1171.0
239.08173311596855,1179.0
239.3515973838103,1212.0
239.62145199955484,1196.0
239.89129696317627,1212.0
240.16113227464845,1184.0
240.43095793394528,1179.0
240.70077394104064,1173.0
240.97058029590852,1194.0
241.24037699852283,1190.0
241.51016404885752,1188.0
241.77994144688643,1158.0
242.04970919258346,1163.0
242.31946728592266,1168.0
242.58921572687785,1198.0
242.85895451542294,1167.0
243.12868365153196,1169.0
243.39840313517874,1169.0
243.66811296633722,1164.0
243.9378131449813,1148.0
244.2075036710849,1177.0
244.47718454462196,1188.0
244.74685576556644,1219.0
245.01651733389218,1142.0
245.28616924957313,1181.0
245.55581151258326,1178.0
245.82544412289644,1190.0
246.09506708048661,1177.0
246.36468038532763,1195.0
246.6342840373935,1166.0
246.9038780366581,1201.0
247.1734623830954,1173.0
247.44303707667922,1171.0
247.71260211738357,1176.0
247.98215750518236,1198.0
248.25170324004947,1189.0
248.5212393219588,1166.0
248.79076575088433,1158.0
249.06028252679997,1166.0
249.32978964967967,1170.0
249.59928711949726,1207.0
249.86877493622674,1156.0
250.13825309984196,1180.0
250.4077216103169,1148.0
250.67718046762548,1192.0
250.94662967174156,1205.0
251.21606922263916,1231.0
251.4854991202921,1161.0
251.75491936467432,1197.0
252.0243299557598,1190.0
252.29373089352242,1205.0
252.5631221779361,1176.0
252.83250380897474,1159.0
253.1018757866123,1164.0
253.37123811082267,1193.0
253.6405907815798,1149.0
253.9099337988576,1169.0
254.1792671626299,1168.0
254.4485908728708,1178.0
254.7179049295541,1145.0
254.98720933265372,1162.0
255.25650408214364,1179.0
255.52578917799767,1180.0
255.79506462018986,1161.0
256.06433040869405,1167.0
256.33358654348416,1155.0
256.60283302453416,1183.0
256.87206985181797,1173.0
257.1412970253095,1185.0
257.41051454498256,1161.0
257.6797224108112,1159.0
257.9489206227693,1135.0
258.2181091808308,1172.0
258.48728808496963,1188.0
258.7564573351596,1218.0
259.0256169313748,1167.0
259.2947668735891,1177.0
259.5639071617763,1173.0
259.83303779591046,1197.0
260.10215877596534,1173.0
260.37127010191506,1182.0
260.64037177373336,1162.0
260.90946379139433,1191.0
261.17854615487175,1167.0
261.4476188641396,1179.0
261.7166819191719,1181.0
261.98573531994236,1186.0
262.254779066425,1155.0
262.5238131585938,1145.0
262.7928375964225,1166.0
263.0618523798853,1187.0
263.33085750895583,1172.0
263.59985298360823,1197.0
263.86883880381635,1192.0
264.1378149695541,1194.0
264.40678148079536,1180.0
264.675738337514,1181.0
264.94468553968426,1168.0
265.2136230872796,1206.0
265.48255098027425,1167.0
265.75146921864206,1164.0
266.0203778023569,1124.0
266.28927673139276,1148.0
266.55816600572354,1139.0
266.8270456253231,1187.0
267.09591559016536,1195.0
267.3647759002244,1200.0
267.63362655547394,1177.0
267.90246755588805,1198.0
268.17129890144054,1205.0
268.4401205921055,1174.0
268.7089326278566,1158.0
268.9777350086678,1188.0
269.24652773451334,1146.0
269.5153108053667,1145.0
269.7840842212021,1128.0
270.0528479819934,1155.0
270.32160208771444,1180.0
270.5903465383392,1187.0
270.8590813338416,1158.0
271.12780647419555,1191.0
271.39652195937487,1183.0
271.6652277893537,1224.0
271.9339239641058,1147.0
272.2026104836051,1146.0
272.4712873478256,1155.0
272.73995455674117,1196.0
273.0086121103257,1187.0
273.2772600085531,1203.0
273.54589825139743,1168.0
273.8145268388324,1138.0
274.0831457708321,1139.0
274.3517550473704,1168.0
274.62035466842116,1170.0
274.88894463395843,1188.0
275.157524943956,1176.0
275.4260955983878,1186.0
275.69465659722783,1176.0
275.96320794045,1158.0
276.2317496280281,1157.0
276.50028165993626,1167.0
276.76880403614825,1151.0
277.03731675663806,1175.0
277.30581982137954,1137.0
277.57431323034666,1173.0
277.8427969835133,1180.0
278.11127108085344,1226.0
278.37973552234104,1148.0
278.64819030794985,1199.0
278.9166354376539,1173.0
279.18507091142715,1173.0
279.45349672924345,1149.0
279.7219128910767,1164.0
279.99031939690093,1163.0
280.25871624668997,1159.0
280.5271034404177,1154.0
280.79548097805815,1166.0
281.0638488595852,1168.0
281.33220708497277,1173.0
281.6005556541948,1158.0
281.86889456722514,1177.0
282.13722382403773,1158.0
282.4055434246065,1169.0
282.6738533689055,1151.0
282.9421536569084,1137.0
283.21044428858926,1128.0
283.47872526392206,1152.0
283.7469965828806,1128.0
284.015258245439,1185.0
284.2835102515709,1185.0
284.5517526012503,1190.0
284.81998529445127,1182.0
285.0882083311476,1186.0
285.35642171131326,1194.0
285.6246254349221,1177.0
285.89281950194817,1135.0
286.1610039123653,1144.0
286.42917866614744,1133.0
286.6973437632684,1176.0
286.9654992037023,1159.0
287.23364498742285,1197.0
287.5017811144041,1208.0
287.76990758462,1185.0
288.0380243980444,1161.0
288.3061315546512,1176.0
288.57422905441445,1169.0
288.84231689730785,1161.0
289.11039508330543,1149.0
289.37846361238127,1178.0
289.64652248450903,1162.0
289.91457169966276,1209.0
290.1826112578164,1140.0
290.4506411589439,1156.0
290.718661403019,1164.0
290.98667199001574,1182.0
291.2546729199081,1149.0
291.5226641926699,1158.0
291.79064580827514,1171.0
292.0586177666976,1184.0
292.3265800679113,1160.0
292.5945327118902,1175.0
292.8624756986082,1183.0
293.1304090280392,1232.0
293.39833270015714,1171.0
293.6662467149358,1180.0
293.93415107234927,1161.0
294.2020457723715,1176.0
294.46993081497624,1177.0
294.7378062001375,1160.0
295.00567192782927,1185.0
295.2735279980254,1178.0
295.5413744106997,1154.0
295.8092111658262,1159.0
296.07703826337894,1160.0
296.34485570333163,1195.0
296.6126634856583,1168.0
296.8804616103328,1167.0
297.1482500773291,1171.0
297.41602888662123,1169.0
297.68379803818294,1139.0
297.95155753198816,1164.0
298.21930736801085,1162.0
298.487047546225,1191.0
298.7547780666044,1177.0
299.0224989291231,1177.0
299.29021013375495,1172.0
299.55791168047386,1182.0
299.8256035692538,1180.0
300.09328580006866,1186.0
300.36095837289236,1171.0
300.6286212876987,1175.0
300.8962745444619,1144.0
301.1639181431556,1189.0
301.43155208375384,1171.0
301.6991763662305,1190.0
301.96679099055956,1144.0
302.2343959567149,1150.0
302.5019912646703,1171.0
302.76957691440003,1209.0
303.0371529058777,1190.0
303.3047192390773,1180.0
303.5722759139728,1171.0
303.8398229305381,1189.0
304.10736028874715,1164.0
304.37488798857385,1195.0
304.6424060299921,1184.0
304.9099144129758,1166.0
305.1774131374989,1129.0
305.4449022035354,1177.0
305.712381611059,1160.0
305.9798513600438,1191.0
306.2473114504638,1173.0
306.5147618822927,1219.0
306.7822026555046,1182.0
307.0496337700733,1167.0
307.3170552259727,1181.0
307.5844670231768,1187.0
307.8518691616595,1176.0
308.1192616413948,1153.0
308.38664446235646,1142.0
308.65401762451853,1175.0
308.9213811278549,1158.0
309.1887349723394,1145.0
309.45607915794614,1140.0
309.7234136846488,1170.0
309.9907385524215,1153.0
310.25805376123805,1158.0
310.52535931107235,1160.0
310.79265520189847,1188.0
311.0599414336902,1190.0
311.32721800642145,1207.0
311.5944849200662,1165.0
311.86174217459836,1204.0
312.12898976999185,1175.0
312.3962277062206,1196.0
312.66345598325853,1158.0
312.93067460107955,1170.0
313.19788355965755,1177.0
313.4650828589664,1193.0
313.7322724989802,1168.0
313.99945247967264,1163.0
314.26662280101783,1155.0
314.5337834629897,1181.0
314.800934465562,1167.0
315.0680758087088,1171.0
315.3352074924039,1166.0
315.60232951662135,1180.0
315.869441881335,1155.0
316.13654458651877,1144.0
316.4036376321465,1162.0
316.6707210181923,1211.0
316.93779474462997,1173.0
317.20485881143344,1166.0
317.4719132185766,1189.0
317.73895796603347,1194.0
318.00599305377784,1156.0
318.2730184817837,1175.0
318.5400342500249,1189.0
318.8070403584756,1201.0
319.07403680710945,1141.0
319.3410235959005,1174.0
319.6080007248226,1200.0
319.8749681938497,1209.0
320.14192600295576,1157.0
320.40887415211466,1181.0
320.6758126413003,1171.0
320.9427414704866,1175.0
321.20966063964755,1171.0
321.47657014875705,1173.0
321.743469997789,1161.0
322.0103601867173,1191.0
322.27724071551586,1140.0
322.5441115841586,1189.0
322.81097279261957,1156.0
323.07782434087244,1190.0
323.3446662288914,1157.0
323.6114984566502,1179.0
323.87832102412284,1164.0
324.1451339312832,1197.0
324.4119371781052,1171.0
324.6787307645628,1192.0
324.9455146906298,1168.0
325.2122889562803,1185.0
325.47905356148806,1180.0
325.7458085062271,1190.0
326.0125537904713,1153.0
326.2792894141946,1177.0
326.5460153773709,1144.0
326.8127316799741,1164.0
327.0794383219783,1162.0
327.3461353033571,1204.0
327.6128226240847,1165.0
327.8795002841348,1194.0
328.1461682834814,1150.0
328.4128266220986,1173.0
328.6794752999601,1144.0
328.9461143170399,1168.0
329.2127436733119,1167.0
329.47936336875,1178.0
329.7459734033282,1160.0
330.01257377702035,1172.0
330.27916448980034,1165.0
330.5457455416422,1194.0
330.8123169325198,1170.0
331.078878662407,1179.0
331.3454307312779,1156.0
331.6119731391061,1204.0
331.8785058858659,1148.0
332.14502897153085,1167.0
332.41154239607516,1156.0
332.6780461594726,1193.0
332.94454026169717,1166.0
333.2110247027227,1184.0
333.47749948252317,1172.0
333.74396460107255,1193.0
334.0104200583446,1164.0
334.2768658543135,1163.0
334.54330198895286,1175.0
334.80972846223676,1197.0
335.0761452741392,1163.0
335.342552424634,1185.0
335.608949913695,1161.0
335.8753377412963,1207.0
336.14171590741176,1162.0
336.40808441201517,1188.0
336.67444325508063,1165.0
336.9407924365819,1179.0
337.20713195649313,1161.0
337.4734618147879,1185.0
337.73978201144047,1156.0
338.0060925464246,1178.0
338.27239341971415,1178.0
338.5386846312832,1204.0
338.8049661811055,1159.0
339.0712380691551,1175.0
339.3375002954059,1152.0
339.60375285983173,1190.0
339.86999576240663,1197.0
340.13622900310435,1163.0
340.40245258189907,1156.0
340.6686664987645,1176.0
340.93487075367466,1167.0
341.20106534660334,1183.0
341.4672502775246,1173.0
341.7334255464124,1184.0
341.9995911532405,1171.0
342.2657470979829,1223.0
342.53189338061344,1171.0
342.7980300011063,1182.0
343.0641569594351,1189.0
343.3302742555738,1197.0
343.5963818894965,1149.0
343.862479861177,1178.0
344.12856817058923,1168.0
344.3946468177071,1205.0
344.6607158025046,1167.0
344.9267751249555,1171.0
345.19282478503396,1173.0
345.4588647827136,1169.0
345.7248951179686,1166.0
345.9909157907727,1171.0
346.25692680109995,1176.0
346.5229281489242,1161.0
346.78891983421937,1148.0
347.0549018569594,1169.0
347.3208742171182,1175.0
347.5868369146698,1178.0
347.8527899495879,1169.0
348.11873332184655,1180.0
348.38466703141967,1167.0
348.6505910782812,1143.0
348.916505462405,1131.0
349.182410183765,1162.0
349.44830524233515,1178.0
349.71419063808935,1180.0
349.98006637100156,1145.0
350.2459324410456,1165.0
350.5117888481955,1177.0
350.7776355924252,1188.0
351.04347267370844,1170.0
351.3093000920194,1171.0
351.57511784733174,1168.0
351.8409259396196,1173.0
352.1067243688567,1179.0
352.3725131350171,1213.0
352.63829223807465,1218.0
352.90406167800336,1201.0
353.16982145477704,1195.0
353.4355715683696,1208.0
353.7013120187552,1180.0
353.9670428059074,1192.0
354.2327639298004,1181.0
354.498475390408,1178.0
354.7641771877041,1151.0
355.0298693216627,1195.0
355.29555179225764,1169.0
355.5612245994629,1196.0
355.82688774325237,1186.0
356.0925412236,1179.0
356.35818504047967,1157.0
356.62381919386536,1171.0
356.8894436837309,1181.0
357.1550585100503,1167.0
357.42066367279745,1146.0
357.6862591719462,1175.0
357.95184500747064,1167.0
358.2174211793444,1168.0
358.48298768754177,1173.0
358.74854453203636,1194.0
359.0140917128022,1153.0
359.2796292298133,1171.0
359.5451570830435,1136.0
359.8106752724667,1185.0
360.0761837980568,1157.0
360.34168265978786,1171.0
360.60717185763355,1166.0
360.8726513915681,1176.0
361.1381212615652,1179.0
361.40358146759877,1187.0
361.66903200964293,1158.0
361.9344728876714,1179.0
362.1999041016582,1175.0
362.4653256515772,1168.0
362.7307375374024,1154.0
362.99613975910756,1193.0
363.2615323166668,1177.0
363.52691521005386,1165.0
363.7922884392428,1150.0
364.05765200420745,1174.0
364.32300590492173,1167.0
364.58835014135974,1193.0
364.85368471349506,1172.0
365.119009621302,1188.0
365.3843248647541,1181.0
365.6496304438256,1172.0
365.9149263584902,1156.0
366.18021260872194,1181.0
366.4454891944947,1193.0
366.7107561157824,1197.0
366.97601337255895,1148.0
367.24126096479824,1172.0
367.5064988924744,1177.0
367.77172715556105,1171.0
368.0369457540323,1166.0
368.30215468786196,1180.0
368.56735395702407,1186.0
368.83254356149246,1192.0
369.097723501241,1164.0
369.36289377624377,1161.0
369.62805438647456,1142.0
369.8932053319074,1200.0
370.1583466125161,1148.0
370.42347822827463,1176.0
370.6886001791569,1165.0
370.9537124651368,1211.0
371.2188150861884,1163.0
371.48390804228535,1186.0
371.7489913334019,1181.0
372.0140649595116,1164.0
372.2791289205887,1155.0
372.5441832166069,1175.0
372.8092278475403,1173.0
373.0742628133627,1203.0
373.339288114048,1149.0
373.6043037495702,1170.0
373.86930971990313,1148.0
374.1343060250209,1182.0
374.3992926648972,1149.0
374.664269639506,1176.0
374.9292369488214,1179.0
375.1941945928171,1170.0
375.45914257146717,1159.0
375.7240808847453,1205.0
375.98900953262586,1171.0
376.25392851508224,1170.0
376.5188378320887,1164.0
376.78373748361906,1184.0
377.0486274696473,1167.0
377.31350779014724,1180.0
377.57837844509277,1136.0
377.84323943445804,1147.0
378.10809075821663,1156.0
378.37293241634285,1177.0
378.6377644088103,1148.0
378.90258673559305,1185.0
379.167399396665,1173.0
379.4322023920001,1162.0
379.69699572157214,1158.0
379.9617793853551,1158.0
380.22655338332305,1173.0
380.4913177154497,1194.0
380.7560723817092,1143.0
381.0208173820751,1174.0
381.2855527165217,1165.0
381.55027838502275,1177.0
381.81499438755225,1176.0
382.0797007240839,1192.0
382.34439739459185,1196.0
382.60908439905006,1191.0
382.8737617374322,1160.0
383.1384294097124,1188.0
383.4030874158645,1157.0
383.66773575586234,1179.0
383.93237442968007,1134.0
384.1970034372913,1140.0
384.46162277867035,1172.0
384.7262324537907,1168.0
384.99083246262666,1158.0
385.2554228051518,1188.0
385.5200034813403,1158.0
385.78457449116604,1191.0
386.0491358346028,1129.0
386.31368751162466,1146.0
386.5782295222054,1151.0
386.8427618663191,1176.0
387.1072845439395,1150.0
387.37179755504076,1176.0
387.63630089959645,1186.0
387.9007945775808,1177.0
388.1652785889676,1140.0
388.4297529337308,1162.0
388.69421761184435,1148.0
388.95867262328204,1175.0
389.223117968018,1135.0
389.48755364602596,1161.0
389.7519796572799,1169.0
390.0163960017538,1193.0
390.28080267942147,1180.0
390.545199690257,1202.0
390.809587034234,1180.0
391.0739647113268,1200.0
391.33833272150906,1176.0
391.60269106475477,1189.0
391.86703974103773,1165.0
392.13137875033203,1157.0
392.3957080926116,1136.0
392.6600277678502,1186.0
392.92433777602184,1182.0
393.18863811710037,1159.0
393.4529287910599,1152.0
393.7172097978741,1172.0
393.98148113751716,1148.0
394.24574280996274,1178.0
394.50999481518494,1160.0
394.77423715315757,1195.0
395.0384698238546,1173.0
395.30269282725,1197.0
395.5669061633175,1181.0
395.8311098320313,1190.0
396.09530383336505,1174.0
396.35948816729285,1195.0
396.6236628337886,1156.0
396.8878278328262,1180.0
397.1519831643795,1173.0
397.4161288284224,1180.0
397.6802648249291,1142.0
397.94439115387314,1171.0
398.2085078152287,1160.0
398.4726148089696,1191.0
398.7367121350698,1141.0
399.0007997935031,1172.0
399.2648777842436,1159.0
399.52894610726514,1159.0
399.7930047625416,1164.0
400.05705375004703,1174.0
400.3210930697551,1150.0
400.58512272164006,1167.0
400.8491427056755,1176.0
401.11315302183556,1202.0
401.3771536700941,1181.0
401.6411446504251,1162.0
401.9051259628023,1151.0
402.1690976071997,1183.0
402.43305958359144,1174.0
402.69701189195115,1182.0
402.96095453225286,1179.0
403.22488750447053,1211.0
403.48881080857797,1201.0
403.75272444454924,1171.0
404.0166284123581,1143.0
404.2805227119787,1162.0
404.54440734338465,1177.0
404.80828230655015,1156.0
405.072147601449,1133.0
405.336003228055,1168.0
405.59984918634234,1181.0
405.8636854762848,1185.0
406.12751209785625,1172.0
406.3913290510306,1209.0
406.655136335782,1198.0
406.91893395208405,1190.0
407.18272189991086,1151.0
407.4465001792363,1148.0
407.7102687900344,1155.0
407.97402773227884,1190.0
408.23777700594377,1173.0
408.50151661100296,1213.0
408.76524654743037,1198.0
409.0289668152,1178.0
409.29267741428566,1152.0
409.55637834466137,1188.0
409.820069606301,1189.0
410.08375119917844,1190.0
410.3474231232677,1159.0
410.61108537854255,1158.0
410.8747379649771,1171.0
411.13838088254505,1171.0
411.40201413122054,1150.0
411.66563771097736,1185.0
411.92925162178943,1174.0
412.19285586363077,1212.0
412.4564504364752,1166.0
412.72003534029665,1171.0
412.98361057506906,1165.0
413.24717614076644,1155.0
413.51073203736246,1145.0
413.77427826483125,1174.0
414.03781482314673,1165.0
414.3013417122828,1184.0
414.5648589322133,1134.0
414.82836648291226,1178.0
415.0918643643535,1178.0
415.35535257651094,1176.0
415.6188311193587,1153.0
415.8822999928703,1175.0
416.14575919702,1164.0
416.40920873178175,1140.0
416.67264859712924,1144.0
416.9360787930365,1157.0
417.19949931947735,1144.0
417.46291017642596,1162.0
417.726311363856,1162.0
417.9897028817416,1206.0
418.2530847300564,1173.0
418.5164569087745,1183.0
418.77981941786993,1169.0
419.0431722573164,1181.0
419.3065154270879,1160.0
419.5698489271584,1182.0
419.8331727575018,1172.0
420.09648691809195,1167.0
420.3597914089029,1148.0
420.62308622990844,1158.0
420.88637138108254,1148.0
421.14964686239915,1186.0
421.4129126738321,1164.0
421.6761688153555,1180.0
421.939415286943,1151.0
422.2026520885688,1165.0
422.46587922020655,1142.0
422.7290966818304,1135.0
422.99230447341415,1166.0
423.2555025949317,1183.0
423.5186910463571,1166.0
423.78186982766414,1190.0
424.04503893882685,1136.0
424.308198379819,1163.0
424.57134815061465,1168.0
424.8344882511876,1173.0
425.09761868151185,1161.0
425.3607394415614,1154.0
425.62385053131,1175.0
425.88695195073166,1182.0
426.1500436998002,1155.0
426.4131257784898,1182.0
426.67619818677406,1163.0
426.9392609246271,1175.0
427.20231399202277,1159.0
427.46535738893505,1176.0
427.7283911153378,1169.0
427.99141517120495,1190.0
428.25442955651044,1145.0
428.5174342712281,1196.0
428.78042931533207,1159.0
429.043414688796,1177.0
429.306390391594,1161.0
429.5693564236999,1166.0
429.83231278508765,1152.0
430.0952594757312,1171.0
430.3581964956044,1147.0
430.6211238446813,1160.0
430.8840415229356,1162.0
431.14694953034143,1188.0
431.40984786687255,1171.0
431.672736532503,1207.0
431.9356155272067,1147.0
432.19848485095747,1143.0
432.4613445037294,1146.0
432.7241944854961,1148.0
432.9870347962319,1167.0
433.24986543591035,1212.0
433.5126864045056,1154.0
433.7754977019915,1189.0
434.03829932834196,1178.0
434.3010912835309,1187.0
434.56387356753226,1180.0
434.82664618032004,1234.0
435.08940912186785,1191.0
435.35216239215003,1169.0
435.6149059911402,1150.0
435.8776399188124,1165.0
436.1403641751406,1172.0
436.40307876009854,1210.0
436.6657836736603,1173.0
436.9284789157997,1192.0
437.19116448649083,1203.0
437.45384038570734,1207.0
437.71650661342346,1190.0
437.97916316961283,1245.0
438.2418100542496,1221.0
438.5044472673075,1215.0
438.7670748087606,1200.0
439.02969267858265,1213.0
439.2923008767477,1158.0
439.5548994032297,1183.0
439.8174882580024,1143.0
440.08006744103994,1161.0
440.34263695231607,1180.0
440.6051967918048,1192.0
440.86774695948003,1168.0
441.1302874553157,1198.0
441.3928182792857,1193.0
441.6553394313638,1167.0
441.9178509115243,1141.0
442.1803527197407,1187.0
442.44284485598723,1183.0
442.70532732023764,1188.0
442.9678001124659,1153.0
443.23026323264594,1205.0
443.4927166807517,1183.0
443.75516045675704,1191.0
444.0175945606359,1167.0
444.28001899236233,1207.0
444.54243375191004,1154.0
444.804838839253,1178.0
445.06723425436525,1147.0
445.3296199972206,1155.0
445.59199606779305,1143.0
445.8543624660564,1168.0
446.11671919198477,1148.0
446.37906624555177,1174.0
446.64140362673163,1179.0
446.9037313354981,1194.0
447.16604937182507,1165.0
447.42835773568675,1170.0
447.69065642705664,1157.0
447.952945445909,1208.0
448.2152247922175,1166.0
448.4774944659563,1175.0
448.73975446709903,1178.0
449.00200479562,1180.0
449.2642454514927,1155.0
449.5264764346913,1181.0
449.7886977451897,1157.0
450.0509093829618,1208.0
450.3131113479816,1160.0
450.57530364022284,1181.0
450.8374862596596,1176.0
451.0996592062656,1194.0
451.36182248001506,1171.0
451.6239760808816,1179.0
451.88612000883927,1173.0
452.1482542638621,1176.0
452.41037884592384,1174.0
452.6724937549986,1208.0
452.93459899106,1167.0
453.1966945540823,1159.0
453.4587804440391,1146.0
453.72085666090453,1169.0
453.98292320465254,1177.0
454.2449800752568,1176.0
454.5070272726916,1127.0
454.7690647969305,1151.0
455.03109264794773,1178.0
455.2931108257169,1210.0
455.5551193302122,1140.0
455.81711816140734,1176.0
456.0791073192763,1163.0
456.3410868037932,1164.0
456.6030566149317,1165.0
456.8650167526659,1161.0
457.1269672169695,1143.0
457.3889080078167,1180.0
457.6508391251812,1149.0
457.91276056903706,1191.0
458.17467233935804,1168.0
458.4365744361182,1201.0
458.6984668592915,1153.0
458.96034960885163,1176.0
459.2222226847728,1170.0
459.4840860870287,1175.0
459.74593981559343,1137.0
460.0077838704407,1164.0
460.26961825154456,1179.0
460.531442958879,1179.0
460.7932579924178,1156.0
461.05506335213505,1181.0
461.3168590380044,1179.0
461.57864505000003,1221.0
461.8404213880957,1164.0
462.1021880522655,1171.0
462.36394504248307,1156.0
462.6256923587226,1192.0
462.8874300009579,1194.0
463.1491579691629,1186.0
463.4108762633116,1138.0
463.6725848833777,1155.0
463.9342838293354,1147.0
464.19597310115836,1165.0
464.4576526988207,1150.0
464.7193226222962,1177.0
464.9809828715588,1189.0
465.2426334465826,1216.0
465.5042743473413,1156.0
465.76590557380894,1164.0
466.02752712595935,1132.0
466.2891390037666,1163.0
466.5507412072044,1154.0
466.8123337362468,1173.0
467.0739165908677,1145.0
467.33548977104107,1171.0
467.5970532767408,1174.0
467.8586071079407,1189.0
468.1201512646149,1156.0
468.3816857467371,1196.0
468.6432105542814,1190.0
468.90472568722157,1218.0
469.1662311455315,1167.0
469.4277269291855,1185.0
469.689213038157,1164.0
469.9506894724202,1142.0
470.2121562319489,1142.0
470.4736133167171,1154.0
470.73506072669863,1155.0
470.9964984618676,1183.0
471.2579265221976,1161.0
471.5193449076628,1198.0
471.78075361823716,1167.0
472.0421526538944,1164.0
472.30354201460864,1144.0
472.5649217003536,1151.0
472.8262917111034,1145.0
473.08765204683175,1159.0
473.34900270751274,1147.0
473.6103436931203,1164.0
473.8716750036281,1161.0
474.1329966390105,1168.0
474.394308599241,1170.0
474.6556108842938,1192.0
474.91690349414256,1198.0
475.1781864287615,1189.0
475.43945968812426,1142.0
475.70072327220487,1187.0
475.9619771809774,1176.0
476.2232214144155,1167.0
476.4844559724933,1161.0
476.7456808551846,1217.0
477.00689606246345,1192.0
477.2681015943036,1172.0
477.5292974506791,1161.0
477.7904836315638,1169.0
478.0516601369316,1167.0
478.3128269667566,1193.0
478.5739841210125,1164.0
478.83513159967333,1183.0
479.09626940271295,1158.0
479.3573975301054,1147.0
479.6185159818244,1139.0
479.879624757844,1166.0
480.1407238581382,1137.0
480.4018132826808,1173.0
480.6628930314457,1162.0
480.9239631044069,1165.0
481.1850235015383,1156.0
481.44607422281376,1168.0
481.70711526820736,1129.0
481.96814663769277,1174.0
482.229168331244,1162.0
482.4901803488352,1170.0
482.75118269044,1169.0
483.01217535603257,1181.0
483.2731583455865,1189.0
483.534131659076,1180.0
483.79509529647487,1156.0
484.056049257757,1186.0
484.3169935428964,1193.0
484.5779281518669,1194.0
484.83885308464255,1158.0
485.09976834119715,1191.0
485.3606739215047,1176.0
485.621569825539,1180.0
485.88245605327415,1152.0
486.1433326046839,1174.0
486.40419947974215,1191.0
486.6650566784231,1204.0
486.92590420070036,1187.0
487.18674204654803,1215.0
487.4475702159399,1174.0
487.70838870885,1192.0
487.96919752525224,1193.0
488.2299966651205,1220.0
488.4907861284287,1196.0
488.75156591515065,1225.0
489.0123360252606,1179.0
489.2730964587321,1185.0
489.5338472155393,1194.0
489.794588295656,1212.0
490.05531969905627,1189.0
490.3160414257139,1212.0
490.57675347560286,1197.0
490.83745584869695,1218.0
491.0981485449702,1182.0
491.3588315643966,1207.0
491.6195049069499,1206.0
491.88016857260425,1221.0
492.1408225613333,1147.0
492.4014668731112,1197.0
492.6621015079117,1190.0
492.92272646570876,1190.0
493.18334174647646,1174.0
493.44394735018847,1204.0
493.7045432768189,1173.0
493.9651295263416,1170.0
494.2257060987305,1189.0
494.48627299395946,1210.0
494.7468302120026,1168.0
495.00737775283346,1176.0
495.2679156164263,1159.0
495.528443802755,1189.0
495.7889623117933,1154.0
496.0494711435153,1178.0
496.30997029789484,1157.0
496.57045977490594,1189.0
496.8309395745223,1156.0
497.0914096967181,1194.0
497.3518701414669,1168.0
497.612320908743,1198.0
497.8727619985203,1173.0
498.1331934107724,1199.0
498.3936151454735,1168.0
498.65402720259743,1187.0
498.91442958211815,1166.0
499.17482228400945,1200.0
499.4352053082453,1149.0
499.6955786547999,1174.0
499.9559423236467,1179.0
500.2162963147601,1172.0
500.47664062811356,1157.0
500.7369752636813,1176.0
500.9973002214371,1162.0
501.257615501355,1180.0
501.5179211034088,1173.0
501.77821702757245,1211.0
502.03850327381997,1178.0
502.29877984212516,1172.0
502.5590467324621,1162.0
502.81930394480446,1172.0
503.0795514791264,1172.0
503.3397893354016,1167.0
503.60001751360426,1146.0
503.860236013708,1156.0
504.12044483568695,1174.0
504.3806439795151,1164.0
504.6408334451661,1125.0
504.90101323261416,1159.0
505.16118334183295,1161.0
505.42134377279655,1181.0
505.68149452547874,1156.0
505.9416355998535,1169.0
506.20176699589496,1159.0
506.4618887135767,1167.0
506.7220007528729,1144.0
506.98210311375726,1193.0
507.242195796204,1166.0
507.5022788001867,1195.0
507.7623521256795,1164.0
508.0224157726562,1167.0
508.2824697410907,1183.0
508.5425140309572,1187.0
508.80254864222934,1155.0
509.0625735748812,1180.0
509.3225888288864,1186.0
509.5825944042193,1173.0
509.8425903008535,1158.0
510.10257651876304,1176.0
510.3625530579218,1156.0
510.6225199183036,1183.0
510.8824770998827,1143.0
511.1424246026326,1172.0
511.4023624265276,1177.0
511.6622905715413,1171.0
511.9222090376479,1125.0
512.182117824821,1175.0
512.4420169330348,1171.0
512.7019063622631,1172.0
512.9617861124799,1172.0
513.2216561836591,1191.0
513.4815165757743,1190.0
513.7413672888,1198.0
514.0012083227098,1169.0
514.2610396774775,1153.0
514.5208613530772,1144.0
514.7806733494828,1181.0
515.0404756666682,1163.0
515.3002683046072,1138.0
515.5600512632741,1150.0
515.8198245426423,1174.0
516.0795881426862,1139.0
516.3393420633794,1170.0
516.5990863046959,1156.0
516.8588208666097,1167.0
517.1185457490944,1146.0
517.3782609521246,1176.0
517.6379664756736,1167.0
517.8976623197156,1184.0
518.1573484842243,1144.0
518.4170249691738,1169.0
518.676691774538,1164.0
518.9363489002908,1173.0
519.1959963464061,1147.0
519.4556341128579,1159.0
519.7152621996202,1155.0
519.9748806066664,1175.0
520.2344893339712,1145.0
520.4940883815078,1170.0
520.7536777492506,1169.0
521.0132574371734,1154.0
521.27282744525,1149.0
521.5323877734545,1176.0
521.7919384217606,1157.0
522.0514793901424,1152.0
522.3110106785737,1153.0
522.5705322870288,1184.0
522.8300442154809,1173.0
523.0895464639045,1185.0
523.3490390322734,1165.0
523.6085219205612,1164.0
523.8679951287423,1171.0
524.1274586567904,1208.0
524.3869125046795,1156.0
524.6463566723833,1171.0
524.9057911598759,1144.0
525.1652159671312,1154.0
525.424631094123,1141.0
525.6840365408256,1165.0
525.9434323072122,1184.0
526.2028183932575,1207.0
526.462194798935,1143.0
526.7215615242187,1184.0
526.9809185690825,1163.0
527.2402659335005,1150.0
527.4996036174464,1133.0
527.758931620894,1166.0
528.0182499438176,1152.0
528.2775585861909,1169.0
528.5368575479879,1128.0
528.7961468291822,1172.0
529.0554264297483,1170.0
529.3146963496596,1159.0
529.5739565888904,1122.0
529.8332071474143,1153.0
530.0924480252053,1158.0
530.3516792222375,1174.0
530.6109007384848,1163.0
530.8701125739209,1193.0
531.1293147285198,1158.0
531.3885072022557,1178.0
531.647689995102,1159.0
531.906863107033,1135.0
532.1660265380227,1189.0
532.4251802880447,1209.0
532.684324357073,1177.0
532.9434587450817,1199.0
533.2025834520446,1158.0
533.4616984779356,1166.0
533.7208038227286,1143.0
533.9798994863976,1182.0
534.2389854689164,1171.0
534.4980617702593,1171.0
534.7571283903995,1164.0
535.0161853293118,1185.0
535.2752325869694,1171.0
535.5342701633466,1181.0
535.7932980584171,1161.0
536.0523162721549,1173.0
536.3113248045341,1162.0
536.5703236555283,1163.0
536.8293128251117,1155.0
537.0882923132581,1182.0
537.3472621199415,1140.0
537.6062222451357,1165.0
537.8651726888147,1155.0
538.1241134509522,1198.0
538.3830445315224,1185.0
538.6419659304993,1194.0
538.9008776478564,1167.0
539.1597796835681,1196.0
539.4186720376078,1177.0
539.6775547099501,1182.0
539.9364277005683,1162.0
540.1952910094366,1178.0
540.4541446365288,1188.0
540.7129885818188,1214.0
540.9718228452808,1168.0
541.2306474268884,1202.0
541.4894623266158,1197.0
541.7482675444367,1208.0
542.0070630803251,1222.0
542.2658489342549,1267.0
542.5246251062,1240.0
542.7833915961344,1282.0
543.0421484040319,1270.0
543.3008955298666,1312.0
543.5596329736122,1313.0
543.8183607352429,1342.0
544.0770788147322,1310.0
544.3357872120545,1367.0
544.5944859271833,1374.0
544.8531749600928,1378.0
545.1118543107568,1361.0
545.3705239791493,1387.0
545.6291839652442,1337.0
545.8878342690153,1336.0
546.1464748904368,1314.0
546.4051058294822,1368.0
546.6637270861258,1347.0
546.9223386603413,1362.0
547.1809405521027,1374.0
547.439532761384,1370.0
547.6981152881589,1357.0
547.9566881324016,1342.0
548.2152512940858,1334.0
548.4738047731855,1319.0
548.7323485696745,1242.0
548.990882683527,1261.0
549.2494071147166,1232.0
549.5079218632175,1224.0
549.7664269290035,1230.0
550.0249223120484,1251.0
550.2834080123264,1216.0
550.5418840298111,1258.0
550.8003503644767,1224.0
551.0588070162968,1202.0
551.3172539852457,1202.0
551.575691271297,1210.0
551.8341188744248,1208.0
552.0925367946031,1216.0
552.3509450318055,1181.0
552.6093435860063,1240.0
552.8677324571792,1222.0
553.1261116452981,1229.0
553.3844811503369,1190.0
553.6428409722696,1223.0
553.9011911110703,1193.0
554.1595315667125,1193.0
554.4178623391706,1195.0
554.6761834284181,1214.0
554.9344948344292,1186.0
555.1927965571775,1194.0
555.4510885966374,1180.0
555.7093709527825,1197.0
555.9676436255867,1184.0
556.2259066150241,1202.0
556.4841599210683,1156.0
556.7424035436937,1185.0
557.0006374828738,1198.0
557.2588617385828,1226.0
557.5170763107943,1135.0
557.7752811994826,1155.0
558.0334764046214,1155.0
558.2916619261845,1163.0
558.5498377641462,1157.0
558.80800391848,1199.0
559.0661603891602,1191.0
559.3243071761603,1169.0
559.5824442794548,1163.0
559.840571699017,1169.0
560.0986894348212,1155.0
560.3567974868413,1165.0
560.6148958550509,1151.0
560.8729845394244,1165.0
561.1310635399352,1144.0
561.3891328565578,1165.0
561.6471924892656,1155.0
561.905242438033,1161.0
562.1632827028335,1170.0
562.4213132836411,1189.0
562.6793341804299,1150.0
562.9373453931737,1203.0
563.1953469218464,1170.0
563.453338766422,1166.0
563.7113209268744,1162.0
563.9692934031774,1182.0
564.227256195305,1142.0
564.4852093032314,1146.0
564.7431527269299,1139.0
565.001086466375,1174.0
565.2590105215404,1176.0
565.5169248924001,1177.0
565.7748295789277,1133.0
566.0327245810976,1160.0
566.2906098988833,1144.0
566.548485532259,1154.0
566.8063514811985,1133.0
567.0642077456757,1148.0
567.3220543256646,1123.0
567.5798912211391,1144.0
567.837718432073,1139.0
568.0955359584403,1164.0
568.3533438002152,1156.0
568.611141957371,1149.0
568.8689304298823,1122.0
569.1267092177226,1155.0
569.3844783208658,1121.0
569.6422377392861,1159.0
569.8999874729572,1152.0
570.1577275218531,1163.0
570.4154578859476,1172.0
570.6731785652148,1179.0
570.9308895596286,1129.0
571.1885908691628,1163.0
571.4462824937914,1181.0
571.7039644334882,1164.0
571.9616366882275,1150.0
572.2192992579826,1177.0
572.476952142728,1155.0
572.7345953424373,1177.0
572.9922288570845,1126.0
573.2498526866435,1167.0
573.5074668310882,1142.0
573.7650712903927,1172.0
574.0226660645308,1161.0
574.2802511534762,1173.0
574.5378265572032,1164.0
574.7953922756855,1174.0
575.052948308897,1157.0
575.3104946568117,1167.0
575.5680313194036,1163.0
575.8255582966464,1178.0
576.0830755885142,1146.0
576.3405831949808,1171.0
576.5980811160204,1163.0
576.8555693516065,1164.0
577.1130479017132,1158.0
577.3705167663146,1184.0
577.6279759453844,1159.0
577.8854254388966,1185.0
578.142865246825,1164.0
578.4002953691438,1205.0
578.6577158058266,1198.0
578.9151265568477,1175.0
579.1725276221805,1153.0
579.4299190017991,1178.0
579.6873006956779,1193.0
579.9446727037903,1185.0
580.2020350261104,1169.0
580.4593876626119,1189.0
580.7167306132691,1178.0
580.9740638780556,1214.0
581.2313874569455,1179.0
581.4887013499127,1193.0
581.746005556931,1164.0
582.0033000779746,1189.0
582.2605849130169,1194.0
582.5178600620325,1195.0
582.7751255249948,1171.0
583.0323813018779,1172.0
583.2896273926557,1164.0
583.546863797302,1195.0
583.804090515791,1167.0
584.0613075480965,1188.0
584.3185148941924,1189.0
584.5757125540524,1203.0
584.8329005276508,1192.0
585.0900788149613,1192.0
585.347247415958,1180.0
585.6044063306146,1218.0
585.8615555589049,1190.0
586.1186951008033,1198.0
586.3758249562833,1185.0
586.632945125319,1198.0
586.8900556078843,1184.0
587.1471564039532,1189.0
587.4042475134993,1176.0
587.661328936497,1205.0
587.9184006729198,1200.0
588.1754627227418,1207.0
588.432515085937,1174.0
588.6895577624791,1201.0
588.9465907523424,1193.0
589.2036140555003,1229.0
589.4606276719271,1189.0
589.7176316015966,1207.0
589.9746258444826,1189.0
590.2316104005595,1229.0
590.4885852698005,1191.0
590.7455504521802,1200.0
591.0025059476719,1184.0
591.25945175625,1179.0
591.5163878778883,1167.0
591.7733143125605,1206.0
592.0302310602409,1168.0
592.287138120903,1174.0
592.5440354945212,1153.0
592.8009231810688,1210.0
593.0578011805203,1194.0
593.3146694928492,1184.0
593.5715281180298,1170.0
593.8283770560358,1215.0
594.0852163068412,1211.0
594.3420458704198,1211.0
594.5988657467456,1177.0
594.8556759357925,1197.0
595.1124764375345,1175.0
595.3692672519454,1185.0
595.626048378999,1178.0
595.8828198186698,1183.0
596.1395815709309,1146.0
596.3963336357567,1171.0
596.6530760131212,1163.0
596.9098087029981,1203.0
597.1665317053615,1166.0
597.423245020185,1176.0
597.6799486474431,1151.0
597.9366425871091,1146.0
598.1933268391572,1160.0
598.4500014035611,1149.0
598.7066662802952,1112.0
598.963321469333,1159.0
599.2199669706486,1166.0
599.4766027842159,1187.0
599.7332289100086,1170.0
599.989845348001,1187.0
600.2464520981667,1140.0
600.50304916048,1168.0
600.7596365349144,1158.0
601.016214221444,1184.0
601.2727822200426,1190.0
601.5293405306844,1183.0
601.7858891533431,1156.0
602.0424280879928,1184.0
602.2989573346072,1175.0
602.5554768931602,1181.0
602.8119867636259,1201.0
603.0684869459783,1199.0
603.324977440191,1158.0
603.5814582462382,1179.0
603.8379293640936,1151.0
604.0943907937313,1166.0
604.3508425351251,1173.0
604.6072845882491,1185.0
604.8637169530771,1167.0
605.1201396295828,1206.0
605.3765526177406,1179.0
605.6329559175239,1177.0
605.8893495289071,1137.0
606.1457334518637,1162.0
606.402107686368,1193.0
606.6584722323936,1182.0
606.9148270899146,1162.0
607.1711722589049,1164.0
607.4275077393385,1154.0
607.6838335311891,1200.0
607.9401496344307,1159.0
608.1964560490374,1189.0
608.4527527749826,1158.0
608.709039812241,1165.0
608.965317160786,1171.0
609.2215848205915,1183.0
609.4778427916317,1178.0
609.7340910738803,1184.0
609.9903296673115,1149.0
610.2465585718988,1180.0
610.5027777876164,1199.0
610.7589873144382,1221.0
611.0151871523381,1202.0
611.2713773012898,1230.0
611.5275577612676,1278.0
611.7837285322452,1356.0
612.0398896141965,1359.0
612.2960410070956,1403.0
612.5521827109162,1420.0
612.8083147256325,1465.0
613.064437051218,1399.0
613.3205496876468,1398.0
613.5766526348931,1370.0
613.8327458929305,1330.0
614.0888294617331,1279.0
614.3449033412746,1287.0
614.6009675315292,1245.0
614.8570220324707,1252.0
615.1130668440729,1242.0
615.3691019663097,1236.0
615.6251273991553,1213.0
615.8811431425835,1232.0
616.137149196568,1204.0
616.3931455610831,1220.0
616.6491322361024,1205.0
616.9051092216001,1231.0
617.1610765175498,1196.0
617.4170341239256,1222.0
617.6729820407014,1208.0
617.9289202678511,1202.0
618.1848488053488,1168.0
618.440767653168,1182.0
618.696676811283,1177.0
618.9525762796677,1205.0
619.2084660582959,1195.0
619.4643461471414,1196.0
619.7202165461782,1195.0
619.9760772553806,1209.0
620.2319282747219,1168.0
620.4877696041765,1194.0
620.7436012437181,1189.0
620.9994231933207,1201.0
621.255235452958,1154.0
621.5110380226043,1180.0
621.7668309022332,1190.0
622.0226140918188,1198.0
622.278387591335,1198.0
622.5341514007556,1197.0
622.7899055200547,1196.0
623.045649949206,1225.0
623.3013846881836,1164.0
623.5571097369614,1187.0
623.8128250955133,1156.0
624.0685307638131,1173.0
624.3242267418348,1170.0
624.5799130295525,1198.0
624.8355896269397,1187.0
625.091256533971,1203.0
625.3469137506196,1173.0
625.6025612768598,1175.0
625.8581991126655,1162.0
626.1138272580104,1197.0
626.3694457128687,1156.0
626.6250544772142,1172.0
626.8806535510208,1153.0
627.1362429342624,1185.0
627.3918226269132,1176.0
627.6473926289466,1210.0
627.902952940337,1191.0
628.1585035610578,1193.0
628.4140444910835,1159.0
628.6695757303878,1163.0
628.9250972789445,1157.0
629.1806091367276,1181.0
629.4361113037111,1137.0
629.6916037798688,1143.0
629.9470865651747,1160.0
630.2025596596026,1195.0
630.4580230631265,1167.0
630.7134767757203,1151.0
630.9689207973582,1158.0
631.2243551280136,1179.0
631.4797797676608,1162.0
631.7351947162736,1184.0
631.990599973826,1186.0
632.2459955402916,1187.0
632.5013814156447,1168.0
632.7567575998592,1183.0
633.0121240929087,1185.0
633.2674808947676,1192.0
633.5228280054093,1145.0
633.778165424808,1171.0
634.0334931529377,1161.0
634.2888111897721,1187.0
634.5441195352853,1136.0
634.799418189451,1153.0
635.0547071522435,1154.0
635.3099864236362,1181.0
635.5652560036036,1149.0
635.8205158921191,1195.0
636.0757660891571,1171.0
636.3310065946911,1179.0
636.5862374086953,1152.0
636.8414585311433,1166.0
637.0966699620094,1158.0
637.3518717012673,1175.0
637.6070637488909,1151.0
637.8622461048542,1153.0
638.1174187691312,1149.0
638.3725817416956,1162.0
638.6277350225216,1138.0
638.8828786115829,1170.0
639.1380125088535,1174.0
639.3931367143072,1199.0
639.6482512279183,1166.0
639.9033560496601,1193.0
640.1584511795071,1171.0
640.4135366174329,1201.0
640.6686123634116,1133.0
640.923678417417,1136.0
641.1787347794229,1148.0
641.4337814494036,1148.0
641.6888184273325,1145.0
641.9438457131841,1181.0
642.1988633069319,1158.0
642.45387120855,1159.0
642.7088694180123,1129.0
642.9638579352927,1177.0
643.218836760365,1175.0
643.4738058932032,1173.0
643.7287653337813,1150.0
643.9837150820732,1149.0
644.2386551380529,1126.0
644.4935855016939,1168.0
644.7485061729708,1154.0
645.0034171518569,1167.0
645.2583184383263,1179.0
645.5132100323532,1172.0
645.7680919339113,1155.0
646.0229641429745,1195.0
646.2778266595167,1158.0
646.532679483512,1164.0
646.787522614934,1144.0
647.0423560537569,1144.0
647.2971797999546,1121.0
647.5519938535008,1131.0
647.8067982143697,1135.0
648.061592882535,1155.0
648.3163778579708,1152.0
648.5711531406508,1148.0
648.8259187305492,1135.0
649.0806746276397,1150.0
649.3354208318964,1180.0
649.5901573432931,1166.0
649.8448841618035,1149.0
650.0996012874019,1160.0
650.3543087200621,1138.0
650.6090064597581,1149.0
650.8636945064635,1160.0
651.1183728601526,1173.0
651.373041520799,1139.0
651.6277004883768,1183.0
651.8823497628601,1177.0
652.1369893442223,1183.0
652.391619232438,1163.0
652.6462394274804,1181.0
652.900849929324,1149.0
653.1554507379424,1158.0
653.4100418533096,1128.0
653.6646232753995,1137.0
653.9191950041861,1142.0
654.1737570396434,1152.0
654.428309381745,1140.0
654.6828520304651,1168.0
654.9373849857776,1163.0
655.1919082476563,1165.0
655.4464218160751,1152.0
655.7009256910083,1159.0
655.9554198724292,1145.0
656.209904360312,1169.0
656.4643791546308,1144.0
656.7188442553593,1145.0
656.9732996624715,1133.0
657.2277453759414,1181.0
657.4821813957428,1165.0
657.7366077218496,1171.0
657.9910243542358,1138.0
658.2454312928753,1184.0
658.499828537742,1170.0
658.7542160888099,1162.0
659.0085939460529,1148.0
659.2629621094449,1162.0
659.5173205789596,1165.0
659.7716693545713,1149.0
660.0260084362535,1137.0
660.2803378239805,1168.0
660.5346575177261,1171.0
660.7889675174642,1199.0
661.0432678231688,1156.0
661.2975584348135,1162.0
661.5518393523727,1145.0
661.80611057582,1154.0
662.0603721051293,1120.0
662.3146239402747,1140.0
662.56886608123,1135.0
662.8230985279693,1144.0
663.0773212804662,1135.0
663.3315343386948,1174.0
663.5857377026291,1176.0
663.839931372243,1170.0
664.0941153475102,1147.0
664.3482896284048,1168.0
664.6024542149008,1156.0
664.856609106972,1150.0
665.1107543045924,1151.0
665.3648898077357,1161.0
665.619015616376,1149.0
665.8731317304873,1177.0
666.1272381500434,1146.0
666.3813348750182,1155.0
666.6354219053856,1135.0
666.8894992411197,1182.0
667.1435668821941,1150.0
667.3976248285833,1172.0
667.6516730802605,1131.0
667.9057116372002,1172.0
668.1597404993757,1132.0
668.4137596667617,1166.0
668.6677691393315,1172.0
668.9217689170592,1166.0
669.175758999919,1121.0
669.4297393878844,1142.0
669.6837100809296,1155.0
669.9376710790283,1183.0
670.1916223821547,1141.0
670.4455639902824,1172.0
670.6994959033856,1156.0
670.9534181214381,1159.0
671.2073306444137,1156.0
671.4612334722864,1158.0
671.7151266050303,1156.0
671.9690100426193,1170.0
672.222883785027,1162.0
672.4767478322276,1193.0
672.7306021841948,1133.0
672.9844468409028,1157.0
673.2382818023254,1157.0
673.4921070684363,1150.0
673.74592263921,1129.0
673.9997285146198,1157.0
674.2535246946399,1138.0
674.5073111792441,1156.0
674.7610879684066,1148.0
675.014855062101,1151.0
675.2686124603013,1140.0
675.5223601629815,1181.0
675.7760981701155,1150.0
676.0298264816772,1164.0
676.2835450976405,1114.0
676.5372540179794,1162.0
676.7909532426677,1161.0
677.0446427716794,1152.0
677.2983226049884,1127.0
677.5519927425686,1161.0
677.805653184394,1139.0
678.0593039304384,1161.0
678.3129449806759,1123.0
678.5665763350802,1173.0
678.8201979936254,1149.0
679.0738099562853,1148.0
679.3274122230338,1131.0
679.581004793845,1173.0
679.8345876686926,1174.0
680.0881608475506,1241.0
680.3417243303932,1156.0
680.5952781171939,1190.0
680.8488222079267,1150.0
681.1023566025657,1160.0
681.3558813010847,1149.0
681.6093963034575,1155.0
681.8629016096585,1146.0
682.1163972196609,1175.0
682.3698831334393,1133.0
682.6233593509672,1154.0
682.8768258722187,1134.0
683.1302826971677,1168.0
683.3837298257879,1127.0
683.6371672580536,1178.0
683.8905949939384,1159.0
684.1440130334165,1164.0
684.3974213764615,1141.0
684.6508200230477,1177.0
684.9042089731486,1170.0
685.1575882267384,1159.0
685.4109577837909,1154.0
685.66431764428,1171.0
685.9176678081799,1140.0
686.1710082754641,1147.0
686.4243390461069,1143.0
686.6776601200819,1178.0
686.9309714973633,1154.0
687.1842731779249,1150.0
687.4375651617405,1144.0
687.6908474487841,1178.0
687.9441200390297,1155.0
688.1973829324512,1166.0
688.4506361290225,1168.0
688.7038796287175,1154.0
688.95711343151,1135.0
689.2103375373744,1155.0
689.4635519462838,1142.0
689.7167566582128,1163.0
689.9699516731353,1148.0
690.2231369910248,1174.0
690.4763126118554,1141.0
690.7294785356011,1155.0
690.982634762236,1146.0
691.2357812917336,1171.0
691.488918124068,1158.0
691.7420452592133,1147.0
691.9951626971433,1169.0
692.2482704378318,1156.0
692.5013684812528,1143.0
692.7544568273802,1171.0
693.007535476188,1148.0
693.2606044276502,1149.0
693.5136636817404,1134.0
693.7667132384327,1163.0
694.019753097701,1182.0
694.2727832595195,1156.0
694.5258037238616,1141.0
694.7788144907016,1163.0
695.0318155600133,1153.0
695.2848069317706,1184.0
695.5377886059475,1127.0
695.7907605825179,1153.0
696.0437228614558,1163.0
696.2966754427347,1164.0
696.5496183263291,1131.0
696.8025515122124,1176.0
697.0554750003589,1171.0
697.3083887907425,1138.0
697.5612928833368,1142.0
697.8141872781162,1171.0
698.0670719750542,1163.0
698.319946974125,1146.0
698.5728122753021,1157.0
698.8256678785599,1180.0
699.0785137838722,1149.0
699.3313499912126,1176.0
699.5841765005556,1132.0
699.8369933118745,1132.0
700.0898004251438,1137.0
700.3425978403369,1150.0
700.5953855574281,1143.0
700.848163576391,1171.0
701.1009318971999,1136.0
701.3536905198283,1156.0
701.6064394442504,1120.0
701.8591786704402,1131.0
702.1119081983712,1163.0
702.3646280280179,1210.0
702.6173381593538,1118.0
702.8700385923529,1151.0
703.1227293269891,1155.0
703.3754103632364,1155.0
703.6280817010688,1138.0
703.88074334046,1153.0
704.1333952813842,1115.0
704.3860375238149,1125.0
704.6386700677265,1131.0
704.8912929130926,1173.0
705.1439060598872,1171.0
705.3965095080843,1170.0
705.6491032576575,1136.0
705.9016873085812,1156.0
706.1542616608291,1141.0
706.4068263143752,1173.0
706.6593812691932,1155.0
706.9119265252572,1176.0
707.164462082541,1144.0
707.4169879410188,1159.0
707.6695041006641,1162.0
707.9220105614511,1193.0
708.1745073233536,1147.0
708.4269943863457,1160.0
708.6794717504011,1127.0
708.9319394154938,1158.0
709.1843973815979,1165.0
709.4368456486869,1172.0
709.6892842167351,1159.0
709.9417130857164,1144.0
710.1941322556045,1131.0
710.4465417263735,1160.0
710.6989414979971,1138.0
710.9513315704496,1159.0
711.2037119437045,1138.0
711.4560826177361,1139.0
711.708443592518,1153.0
711.9607948680243,1181.0
712.213136444229,1158.0
712.4654683211057,1162.0
712.7177904986287,1147.0
712.9701029767715,1180.0
713.2224057555085,1152.0
713.4746988348132,1174.0
713.7269822146599,1157.0
713.9792558950222,1176.0
714.231519875874,1172.0
714.4837741571896,1177.0
714.7360187389426,1138.0
714.9882536211069,1163.0
715.2404788036566,1164.0
715.4926942865656,1184.0
715.7449000698076,1167.0
715.9970961533567,1160.0
716.2492825371868,1146.0
716.501459221272,1181.0
716.7536262055859,1148.0
717.0057834901024,1161.0
717.2579310747959,1143.0
717.5100689596399,1175.0
717.7621971446084,1148.0
718.0143156296753,1181.0
718.2664244148144,1144.0
718.5185235,1153.0
718.7706128852058,1134.0
719.0226925704058,1158.0
719.2747625555735,1142.0
719.5268228406835,1152.0
719.7788734257092,1150.0
720.0309143106249,1153.0
720.2829454954041,1134.0
720.534966980021,1169.0
720.7869787644495,1141.0
721.0389808486634,1162.0
721.2909732326368,1156.0
721.5429559163434,1192.0
721.7949288997575,1141.0
722.0468921828524,1152.0
722.2988457656026,1164.0
722.5507896479819,1181.0
722.8027238299638,1166.0
723.0546483115228,1164.0
723.3065630926325,1125.0
723.5584681732669,1149.0
723.8103635533998,1151.0
724.0622492330054,1141.0
724.3141252120573,1149.0
724.5659914905295,1176.0
724.8178480683962,1133.0
725.0696949456309,1161.0
725.3215321222078,1127.0
725.5733595981008,1144.0
725.8251773732837,1118.0
726.0769854477305,1138.0
726.3287838214152,1146.0
726.5805724943115,1179.0
726.8323514663933,1140.0
727.084120737635,1160.0
727.3358803080099,1138.0
727.5876301774923,1141.0
727.8393703460561,1131.0
728.0911008136751,1168.0
728.3428215803233,1154.0
728.5945326459745,1191.0
728.8462340106026,1159.0
729.0979256741819,1154.0
729.3496076366858,1151.0
729.6012798980886,1182.0
729.8529424583642,1130.0
730.1045953174862,1156.0
730.3562384754288,1152.0
730.6078719321658,1154.0
730.8594956876711,1141.0
731.1111097419189,1172.0
731.3627140948826,1138.0
731.6143087465367,1169.0
731.8658936968546,1150.0
732.1174689458109,1154.0
732.3690344933786,1138.0
732.6205903395324,1139.0
732.8721364842457,1121.0
733.1236729274929,1160.0
733.3751996692475,1138.0
733.6267167094836,1154.0
733.8782240481752,1143.0
734.129721685296,1178.0
734.3812096208202,1160.0
734.6326878547214,1182.0
734.8841563869737,1128.0
735.1356152175513,1153.0
735.3870643464273,1136.0
735.6385037735766,1144.0
735.8899334989725,1133.0
736.1413535225892,1168.0
736.3927638444003,1133.0
736.6441644643801,1149.0
736.8955553825023,1153.0
737.1469365987408,1188.0
737.3983081130696,1175.0
737.6496699254626,1166.0
737.9010220358938,1131.0
738.152364444337,1150.0
738.4036971507662,1154.0
738.6550201551553,1164.0
738.9063334574782,1135.0
739.1576370577087,1149.0
739.408930955821,1131.0
739.6602151517889,1153.0
739.911489645586,1142.0
740.1627544371869,1165.0
740.4140095265649,1168.0
740.6652549136942,1146.0
740.9164905985486,1122.0
741.1677165811021,1165.0
741.4189328613287,1173.0
741.6701394392022,1154.0
741.9213363146966,1123.0
742.1725234877857,1149.0
742.4237009584436,1143.0
742.6748687266439,1132.0
742.926026792361,1122.0
743.1771751555683,1178.0
743.42831381624,1169.0
743.67944277435,1160.0
743.9305620298724,1150.0
744.1816715827807,1178.0
744.4327714330492,1131.0
744.6838615806516,1147.0
744.9349420255619,1131.0
745.186012767754,1169.0
745.4370738072018,1142.0
745.6881251438792,1164.0
745.9391667777604,1137.0
746.1901987088189,1163.0
746.4412209370289,1172.0
746.6922334623642,1159.0
746.9432362847988,1148.0
747.1942294043065,1170.0
747.4452128208612,1157.0
747.6961865344371,1155.0
747.9471505450078,1157.0
748.1981048525474,1156.0
748.4490494570298,1160.0
748.6999843584289,1165.0
748.9509095567186,1135.0
749.2018250518728,1145.0
749.4527308438654,1143.0
749.7036269326704,1181.0
749.9545133182619,1166.0
750.2053900006133,1165.0
750.4562569796991,1155.0
750.7071142554928,1168.0
750.9579618279685,1153.0
751.2087996971001,1152.0
751.4596278628615,1137.0
751.7104463252266,1169.0
751.9612550841694,1156.0
752.2120541396638,1162.0
752.4628434916835,1148.0
752.7136231402029,1146.0
752.9643930851954,1143.0
753.2151533266353,1160.0
753.4659038644963,1132.0
753.7166446987524,1151.0
753.9673758293776,1136.0
754.2180972563457,1147.0
754.4688089796306,1130.0
754.7195109992062,1149.0
754.9702033150468,1133.0
755.2208859271257,1158.0
755.4715588354173,1141.0
755.7222220398953,1149.0
755.9728755405337,1136.0
756.2235193373064,1178.0
756.4741534301871,1204.0
756.7247778191503,1188.0
756.9753925041692,1142.0
757.2259974852184,1136.0
757.4765927622713,1133.0
757.7271783353021,1160.0
757.9777542042846,1136.0
758.2283203691927,1159.0
758.4788768300004,1152.0
758.7294235866816,1175.0
758.9799606392104,1129.0
759.2304879875602,1153.0
759.4810056317056,1146.0
759.7315135716199,1166.0
759.9820118072773,1140.0
760.2325003386519,1151.0
760.4829791657174,1146.0
760.7334482884478,1130.0
760.9839077068168,1131.0
761.2343574207987,1171.0
761.484797430367,1178.0
761.735227735496,1149.0
761.9856483361594,1143.0
762.2360592323311,1189.0
762.4864604239852,1155.0
762.7368519110954,1152.0
762.987233693636,1111.0
763.2376057715804,1144.0
763.487968144903,1147.0
763.7383208135773,1162.0
763.9886637775775,1144.0
764.2389970368773,1164.0
764.4893205914509,1184.0
764.7396344412722,1192.0
764.9899385863147,1131.0
765.2402330265528,1137.0
765.4905177619603,1159.0
765.740792792511,1158.0
765.9910581181788,1120.0
766.2413137389377,1129.0
766.4915596547617,1150.0
766.7417958656245,1175.0
766.9920223715003,1136.0
767.2422391723628,1164.0
767.4924462681862,1141.0
767.742643658944,1158.0
767.9928313446105,1138.0
768.2430093251593,1168.0
768.4931776005645,1174.0
768.7433361708001,1183.0
768.9934850358397,1136.0
769.2436241956577,1153.0
769.4937536502277,1160.0
769.7438733995237,1156.0
769.9939834435195,1113.0
770.2440837821891,1141.0
770.4941744155066,1147.0
770.7442553434456,1150.0
770.9943265659803,1134.0
771.2443880830843,1151.0
771.4944398947321,1164.0
771.7444820008968,1154.0
771.9945144015531,1134.0
772.2445370966744,1149.0
772.4945500862349,1137.0
772.7445533702083,1156.0
772.9945469485688,1124.0
773.24453082129,1155.0
773.4945049883461,1170.0
773.7444694497109,1152.0
773.9944242053582,1107.0
774.2443692552622,1143.0
774.4943045993966,1162.0
774.7442302377353,1153.0
774.9941461702524,1152.0
775.2440523969217,1153.0
775.4939489177171,1151.0
775.7438357326126,1154.0
775.9937128415821,1128.0
776.2435802445996,1140.0
776.4934379416388,1145.0
776.7432859326738,1160.0
776.9931242176782,1133.0
777.2429527966265,1161.0
777.4927716694921,1132.0
777.7425808362494,1179.0
777.9923802968718,1124.0
778.2421700513336,1138.0
778.4919500996084,1150.0
778.7417204416705,1169.0
778.9914810774935,1138.0
779.2412320070515,1160.0
779.4909732303183,1145.0
779.740704747268,1188.0
779.9904265578743,1158.0
780.2401386621113,1169.0
780.4898410599528,1129.0
780.7395337513728,1145.0
780.9892167363452,1114.0
781.2388900148438,1129.0
781.4885535868427,1122.0
781.7382074523157,1147.0
781.9878516112368,1129.0
782.2374860635799,1168.0
782.4871108093189,1153.0
782.7367258484278,1171.0
782.9863311808803,1124.0
783.2359268066505,1154.0
783.4855127257123,1141.0
783.7350889380396,1177.0
783.9846554436065,1127.0
784.2342122423864,1160.0
784.483759334354,1156.0
784.7332967194824,1180.0
784.9828243977461,1131.0
785.2323423691188,1136.0
785.4818506335743,1130.0
785.7313491910869,1156.0
785.9808380416301,1122.0
786.2303171851781,1150.0
786.4797866217048,1151.0
786.7292463511839,1162.0
786.9786963735895,1141.0
787.2281366888955,1165.0
787.4775672970758,1148.0
787.7269881981043,1166.0
787.9763993919552,1144.0
788.2258008786018,1144.0
788.4751926580186,1137.0
788.7245747301793,1154.0
788.9739470950577,1132.0
789.223309752628,1147.0
789.4726627028639,1127.0
789.7220059457394,1138.0
789.9713394812284,1127.0
790.2206633093049,1164.0
790.4699774299426,1164.0
790.7192818431157,1132.0
790.9685765487978,1140.0
791.2178615469633,1161.0
791.4671368375856,1148.0
791.7164024206389,1164.0
791.9656582960971,1145.0
792.214904463934,1147.0
792.4641409241239,1132.0
792.71336767664,1142.0
792.962584721457,1135.0
793.2117920585482,1142.0
793.460989687888,1142.0
793.71017760945,1163.0
793.9593558232083,1136.0
794.2085243291367,1152.0
794.4576831272093,1160.0
794.7068322173998,1151.0
794.9559715996821,1128.0
795.2051012740304,1132.0
795.4542212404183,1152.0
795.7033314988199,1165.0
795.9524320492092,1128.0
796.2015228915599,1139.0
796.4506040258461,1143.0
796.6996754520417,1153.0
796.9487371701205,1128.0
797.1977891800564,1122.0
797.4468314818234,1160.0
797.6958640753957,1166.0
797.9448869607467,1147.0
798.1939001378507,1158.0
798.4429036066814,1148.0
798.691897367213,1136.0
798.9408814194189,1131.0
799.1898557632736,1165.0
799.4388203987506,1173.0
799.6877753258242,1157.0
799.9367205444681,1117.0
800.1856560546561,1141.0
800.4345818563623,1125.0
800.6834979495605,1144.0
800.9324043342249,1140.0
801.181301010329,1165.0
801.430187977847,1143.0
801.6790652367528,1144.0
801.9279327870203,1133.0
802.1767906286233,1123.0
802.4256387615358,1122.0
802.6744771857318,1159.0
802.9233059011851,1140.0
803.1721249078698,1168.0
803.4209342057595,1128.0
803.6697337948284,1165.0
803.9185236750504,1121.0
804.1673038463992,1132.0
804.4160743088491,1133.0
804.6648350623736,1159.0
804.913586106947,1127.0
805.1623274425428,1137.0
805.4110590691354,1156.0
805.6597809866984,1160.0
805.9084931952057,1139.0
806.1571956946314,1154.0
806.4058884849493,1142.0
806.6545715661333,1147.0
806.9032449381574,1126.0
807.1519086009955,1151.0
807.4005625546215,1163.0
807.6492067990096,1167.0
807.8978413341331,1132.0
808.1464661599663,1145.0
808.3950812764833,1140.0
808.6436866836576,1148.0
808.8922823814636,1118.0
809.1408683698746,1154.0
809.3894446488654,1151.0
809.6380112184088,1150.0
809.8865680784796,1128.0
810.1351152290515,1159.0
810.3836526700983,1164.0
810.632180401594,1167.0
810.8806984235125,1127.0
811.1292067358277,1136.0
811.3777053385134,1135.0
811.6261942315439,1164.0
811.8746734148926,1127.0
812.1231428885338,1137.0
812.3716026524414,1139.0
812.6200527065893,1165.0
812.8684930509513,1132.0
813.1169236855012,1155.0
813.3653446102134,1158.0
813.6137558250612,1161.0
813.862157330019,1141.0
814.1105491250606,1171.0
814.3589312101599,1154.0
814.6073035852907,1154.0
814.855666250427,1131.0
815.1040192055428,1138.0
815.352362450612,1116.0
815.6006959856085,1159.0
815.849019810506,1138.0
816.0973339252787,1148.0
816.3456383299005,1134.0
816.5939330243451,1162.0
816.8422180085869,1174.0
817.0904932825991,1158.0
817.3387588463564,1147.0
817.5870146998321,1156.0
817.8352608430006,1136.0
818.0834972758354,1163.0
818.3317239983104,1155.0
818.5799410104001,1158.0
818.8281483120778,1147.0
819.0763459033178,1181.0
819.3245337840938,1147.0
819.5727119543799,1139.0
819.8208804141497,1106.0
820.0690391633775,1158.0
820.3171882020371,1162.0
820.5653275301022,1159.0
820.8134571475472,1128.0
821.0615770543453,1199.0
821.3096872504713,1145.0
821.5577877358983,1130.0
821.8058785106008,1133.0
822.0539595745524,1142.0
822.3020309277271,1148.0
822.5500925700989,1157.0
822.7981445016417,1137.0
823.0461867223294,1169.0
823.2942192321357,1152.0
823.5422420310349,1154.0
823.7902551190007,1142.0
824.0382584960071,1124.0
824.2862521620278,1136.0
824.534236117037,1147.0
824.7822103610087,1126.0
825.0301748939165,1153.0
825.2781297157344,1141.0
825.5260748264366,1190.0
825.7740102259966,1160.0
826.0219359143886,1137.0
826.2698518915863,1158.0
826.5177581575639,1163.0
826.7656547122951,1139.0
827.013541555754,1141.0
827.2614186879144,1130.0
827.5092861087503,1156.0
827.7571438182355,1135.0
828.004991816344,1139.0
828.2528301030497,1145.0
828.5006586783264,1183.0
828.7484775421484,1156.0
828.9962866944892,1167.0
829.2440861353228,1154.0
829.4918758646234,1161.0
829.7396558823647,1147.0
829.9874261885204,1157.0
830.2351867830649,1141.0
830.4829376659719,1141.0
830.7306788372151,1127.0
830.9784102967689,1157.0
831.2261320446067,1162.0
831.4738440807029,1154.0
831.721546405031,1139.0
831.9692390175651,1160.0
832.2169219182792,1122.0
832.464595107147,1143.0
832.7122585841428,1135.0
832.9599123492401,1152.0
833.2075564024132,1169.0
833.4551907436356,1179.0
833.7028153728817,1118.0
833.9504302901249,1158.0
834.1980354953396,1162.0
834.4456309884994,1166.0
834.6932167695783,1122.0
834.9407928385504,1126.0
835.1883591953892,1122.0
835.4359158400691,1165.0
835.6834627725636,1138.0
835.9309999928472,1130.0
836.1785275008932,1139.0
836.4260452966759,1148.0
836.6735533801688,1137.0
836.9210517513462,1148.0
837.1685404101821,1147.0
837.4160193566502,1154.0
837.6634885907245,1114.0
837.9109481123786,1155.0
838.158397921587,1128.0
838.4058380183233,1139.0
838.6532684025613,1133.0
838.9006890742753,1125.0
839.1481000334387,1106.0
839.395501280026,1146.0
839.6428928140106,1135.0
839.8902746353668,1163.0
840.1376467440683,1137.0
840.3850091400891,1151.0
840.6323618234031,1140.0
840.8797047939842,1163.0
841.1270380518065,1146.0
841.3743615968435,1167.0
841.6216754290697,1147.0
841.8689795484584,1150.0
842.1162739549841,1139.0
842.3635586486201,1137.0
842.6108336293411,1143.0
842.8580988971204,1145.0
843.1053544519319,1126.0
843.3526002937501,1136.0
843.5998364225484,1125.0
843.8470628383009,1156.0
844.0942795409813,1119.0
844.3414865305639,1136.0
844.5886838070224,1112.0
844.8358713703307,1146.0
845.0830492204628,1136.0
845.3302173573926,1134.0
845.577375781094,1144.0
845.824524491541,1145.0
846.0716634887074,1169.0
846.318792772567,1165.0
846.5659123430942,1119.0
846.8130222002624,1141.0
847.0601223440457,1145.0
847.3072127744182,1162.0
847.5542934913535,1143.0
847.801364494826,1154.0
848.0484257848091,1162.0
848.295477361277,1175.0
848.5425192242034,1121.0
848.7895513735625,1136.0
849.0365738093279,1137.0
849.2835865314739,1124.0
849.5305895399742,1113.0
849.7775828348028,1131.0
850.0245664159336,1146.0
850.2715402833404,1150.0
850.5185044369973,1157.0
850.765458876878,1172.0
851.0124036029566,1168.0
851.2593386152071,1130.0
851.5062639136031,1121.0
851.7531794981189,1145.0
852.000085368728,1125.0
852.2469815254047,1138.0
852.4938679681228,1118.0
852.7407446968562,1151.0
852.9876117115788,1157.0
853.2344690122644,1150.0
853.4813165988874,1128.0
853.7281544714209,1157.0
853.9749826298397,1140.0
854.221801074117,1149.0
854.4686098042273,1112.0
854.715408820144,1137.0
854.9621981218415,1139.0
855.2089777092933,1176.0
855.4557475824737,1150.0
855.7025077413564,1174.0
855.9492581859151,1156.0
856.1959989161244,1152.0
856.4427299319575,1148.0
856.6894512333887,1143.0
856.9361628203918,1141.0
857.1828646929408,1156.0
857.4295568510095,1133.0
857.6762392945719,1162.0
857.9229120236021,1139.0
858.1695750380736,1134.0
858.4162283379608,1119.0
858.6628719232372,1134.0
858.909505793877,1149.0
859.1561299498538,1155.0
859.4027443911418,1114.0
859.6493491177151,1126.0
859.8959441295472,1141.0
860.1425294266122,1152.0
860.389105008884,1118.0
860.6356708763367,1132.0
860.8822270289439,1156.0
861.1287734666797,1145.0
861.375310189518,1121.0
861.6218371974327,1149.0
861.8683544903977,1149.0
862.114862068387,1150.0
862.3613599313745,1122.0
862.6078480793341,1120.0
862.8543265122397,1140.0
863.1007952300653,1172.0
863.3472542327846,1136.0
863.5937035203718,1160.0
863.8401430928006,1125.0
864.0865729500453,1129.0
864.3329930920792,1133.0
864.5794035188768,1133.0
864.8258042304117,1159.0
865.0721952266579,1170.0
865.3185765075892,1121.0
865.5649480731797,1132.0
865.8113099234033,1135.0
866.0576620582339,1150.0
866.3040044776454,1125.0
866.5503371816117,1136.0
866.7966601701067,1151.0
867.0429734431043,1170.0
867.2892770005787,1125.0
867.5355708425034,1149.0
867.7818549688525,1143.0
868.0281293796002,1147.0
868.2743940747198,1132.0
868.5206490541858,1177.0
868.766894317972,1145.0
869.0131298660519,1165.0
869.2593556984,1134.0
869.5055718149898,1150.0
869.7517782157955,1166.0
869.9979749007908,1165.0
870.24416186995,1131.0
870.4903391232464,1158.0
870.7365066606544,1159.0
870.9826644821478,1160.0
871.2288125877005,1132.0
871.4749509772863,1179.0
871.7210796508793,1150.0
871.9671986084535,1149.0
872.2133078499825,1113.0
872.4594073754406,1132.0
872.7054971848014,1131.0
872.9515772780389,1147.0
873.1976476551272,1130.0
873.44370831604,1154.0
873.6897592607512,1152.0
873.9358004892348,1184.0
874.181832001465,1145.0
874.4278537974152,1144.0
874.6738658770598,1132.0
874.9198682403724,1176.0
875.1658608873271,1158.0
875.4118438178975,1170.0
875.6578170320579,1126.0
875.9037805297821,1154.0
876.149734311044,1114.0
876.3956783758176,1141.0
876.6416127240767,1144.0
876.8875373557953,1162.0
877.1334522709471,1121.0
877.3793574695064,1150.0
877.6252529514468,1164.0
877.8711387167424,1166.0
878.1170147653671,1117.0
878.3628810972948,1139.0
878.6087377124994,1142.0
878.8545846109547,1128.0
879.1004217926348,1113.0
879.3462492575137,1171.0
879.592067005565,1157.0
879.8378750367629,1174.0
880.0836733510812,1110.0
880.3294619484939,1140.0
880.5752408289748,1114.0
880.8210099924979,1136.0
881.066769439037,1118.0
881.3125191685664,1147.0
881.5582591810595,1161.0
881.8039894764904,1145.0
882.0497100548332,1118.0
882.2954209160617,1141.0
882.5411220601501,1154.0
882.7868134870716,1156.0
883.0324951968009,1115.0
883.2781671893114,1110.0
883.5238294645773,1135.0
883.7694820225723,1161.0
884.0151248632704,1121.0
884.2607579866458,1140.0
884.5063813926721,1177.0
884.7519950813233,1173.0
884.9975990525734,1134.0
885.2431933063962,1134.0
885.4887778427656,1154.0
885.7343526616556,1161.0
885.9799177630401,1125.0
886.225473146893,1165.0
886.4710188131884,1136.0
886.7165547618998,1138.0
886.9620809930017,1121.0
887.2075975064676,1136.0
887.4531043022715,1165.0
887.6986013803873,1166.0
887.944088740789,1129.0
888.1895663834505,1161.0
888.4350343083456,1122.0
888.6804925154485,1148.0
888.9259410047329,1127.0
889.1713797761728,1133.0
889.416808829742,1121.0
889.6622281654146,1161.0
889.9076377831643,1152.0
890.1530376829652,1149.0
890.3984278647913,1158.0
890.6438083286162,1182.0
890.8891790744141,1140.0
891.1345401021588,1163.0
891.3798914118244,1148.0
891.6252330033844,1152.0
891.8705648768133,1136.0
892.1158870320844,1154.0
892.361199469172,1154.0
892.6065021880501,1162.0
892.8517951886923,1139.0
893.0970784710728,1154.0
893.3423520351654,1137.0
893.5876158809441,1143.0
893.8328700083825,1123.0
894.078114417455,1137.0
894.3233491081353,1125.0
894.5685740803972,1146.0
894.8137893342149,1140.0
895.058994869562,1188.0
895.3041906864125,1158.0
895.5493767847405,1160.0
895.7945531645198,1155.0
896.0397198257243,1173.0
896.284876768328,1135.0
896.5300239923048,1152.0
896.7751614976285,1158.0
897.0202892842732,1188.0
897.2654073522126,1140.0
897.510515701421,1172.0
897.7556143318718,1129.0
898.0007032435394,1154.0
898.2457824363973,1150.0
898.4908519104197,1145.0
898.7359116655806,1124.0
898.9809617018536,1131.0
899.226002019213,1133.0
899.4710326176322,1149.0
899.7160534970858,1117.0
899.961064657547,1144.0
900.2060660989903,1140.0
900.4510578213893,1158.0
900.696039824718,1123.0
900.9410121089505,1158.0
901.1859746740603,1165.0
901.4309275200218,1154.0
901.6758706468086,1113.0
901.9208040543947,1153.0
902.165727742754,1154.0
902.4106417118604,1176.0
902.6555459616881,1144.0
902.9004404922106,1152.0
903.1453253034022,1142.0
903.3902003952364,1168.0
903.6350657676876,1153.0
903.8799214207291,1144.0
904.1247673543356,1141.0
904.3696035684804,1164.0
904.6144300631377,1136.0
904.8592468382814,1163.0
905.1040538938853,1154.0
905.3488512299233,1155.0
905.5936388463696,1130.0
905.8384167431979,1145.0
906.0831849203821,1132.0
906.3279433778962,1154.0
906.5726921157141,1129.0
906.8174311338096,1144.0
907.0621604321569,1138.0
907.3068800107296,1161.0
907.551589869502,1131.0
907.7962900084476,1140.0
908.0409804275406,1132.0
908.2856611267548,1163.0
908.5303321060642,1154.0
908.7749933654427,1171.0
909.0196449048641,1173.0
909.2642867243025,1197.0
909.5089188237316,1149.0
909.7535412031257,1143.0
909.9981538624583,1148.0
910.2427568017035,1161.0
910.4873500208353,1150.0
910.7319335198274,1186.0
910.976507298654,1164.0
911.2210713572888,1177.0
911.4656256957059,1130.0
911.710170313879,1147.0
911.9547052117822,1161.0
912.1992303893893,1161.0
912.4437458466742,1120.0
912.6882515836111,1158.0
912.9327476001736,1153.0
913.1772338963358,1153.0
913.4217104720715,1117.0
913.6661773273547,1149.0
913.9106344621592,1143.0
914.1550818764592,1150.0
914.3995195702284,1134.0
914.6439475434407,1152.0
914.8883657960702,1140.0
915.1327743280906,1125.0
915.3771731394759,1131.0
915.6215622302001,1141.0
915.865941600237,1131.0
916.1103112495605,1120.0
916.3546711781447,1131.0
916.5990213859634,1133.0
916.8433618729905,1156.0
917.0876926392001,1132.0
917.3320136845658,1132.0
917.5763250090619,1158.0
917.820626612662,1137.0
918.0649184953402,1179.0
918.3092006570703,1157.0
918.5534730978262,1168.0
918.7977358175821,1159.0
919.0419888163115,1184.0
919.2862320939888,1155.0
919.5304656505874,1148.0
919.7746894860817,1153.0
920.0189036004452,1131.0
920.2631079936523,1099.0
920.5073026656763,1138.0
920.7514876164915,1160.0
920.995662846072,1160.0
921.2398283543914,1134.0
921.4839841414238,1162.0
921.728130207143,1169.0
921.9722665515229,1194.0
922.2163931745375,1154.0
922.4605100761607,1174.0
922.7046172563665,1167.0
922.9487147151286,1139.0
923.1928024524211,1104.0
923.436880468218,1159.0
923.680948762493,1160.0
923.9250073352201,1175.0
924.1690561863735,1154.0
924.4130953159265,1157.0
924.6571247238535,1142.0
924.9011444101284,1146.0
925.1451543747249,1124.0
925.3891546176172,1164.0
925.6331451387789,1159.0
925.8771259381843,1145.0
926.1210970158069,1133.0
926.365058371621,1137.0
926.6090100056,1146.0
926.8529519177184,1158.0
927.0968841079499,1143.0
927.3408065762685,1146.0
927.5847193226479,1136.0
927.8286223470622,1165.0
928.0725156494851,1124.0
928.3163992298909,1141.0
928.5602730882532,1152.0
928.8041372245459,1171.0
929.0479916387432,1146.0
929.2918363308189,1150.0
929.5356713007467,1150.0
929.7794965485009,1159.0
930.0233120740551,1104.0
930.2671178773835,1139.0
930.5109139584597,1180.0
930.7547003172579,1160.0
930.9984769537518,1120.0
931.2422438679154,1158.0
931.4860010597228,1148.0
931.7297485291476,1153.0
931.9734862761641,1132.0
932.2172143007458,1147.0
932.4609326028669,1176.0
932.7046411825013,1150.0
932.9483400396227,1123.0
933.1920291742055,1149.0
933.435708586223,1157.0
933.6793782756496,1172.0
933.923038242459,1106.0
934.1666884866252,1157.0
934.410329008122,1125.0
934.6539598069236,1158.0
934.8975808830033,1131.0
935.1411922363358,1150.0
935.3847938668946,1143.0
935.6283857746537,1138.0
935.8719679595871,1135.0
936.1155404216684,1143.0
936.3591031608719,1164.0
936.6026561771713,1157.0
936.8461994705405,1150.0
937.0897330409537,1174.0
937.3332568883845,1148.0
937.5767710128072,1155.0
937.8202754141951,1127.0
938.0637700925228,1155.0
938.3072550477636,1129.0
938.550730279892,1139.0
938.7941957888816,1117.0
939.0376515747062,1175.0
939.28109763734,1155.0
939.5245339767569,1142.0
939.7679605929306,1140.0
940.0113774858352,1173.0
940.2547846554446,1158.0
940.4981821017326,1156.0
940.7415698246733,1119.0
940.9849478242404,1143.0
941.228316100408,1160.0
941.4716746531501,1184.0
941.7150234824403,1144.0
941.9583625882528,1144.0
942.2016919705615,1145.0
942.4450116293402,1143.0
942.6883215645629,1135.0
942.9316217762034,1133.0
943.1749122642358,1164.0
943.4181930286338,1161.0
943.6614640693717,1130.0
943.9047253864229,1141.0
944.1479769797618,1142.0
944.391218849362,1154.0
944.6344509951975,1110.0
944.8776734172422,1154.0
945.1208861154702,1139.0
945.3640890898554,1148.0
945.6072823403713,1135.0
945.8504658669924,1143.0
946.0936396696923,1141.0
946.3368037484449,1136.0
946.5799581032242,1113.0
946.8231027340042,1145.0
947.0662376407586,1146.0
947.3093628234615,1183.0
947.5524782820869,1130.0
947.7955840166084,1166.0
948.0386800270002,1138.0
948.2817663132361,1171.0
948.5248428752901,1110.0
948.7679097131361,1122.0
949.0109668267479,1128.0
949.2540142160996,1130.0
949.4970518811649,1123.0
949.740079821918,1161.0
949.9830980383325,1167.0
950.2261065303827,1183.0
950.4691052980422,1141.0
950.7120943412851,1149.0
950.9550736600852,1165.0
951.1980432544165,1174.0
951.4410031242528,1136.0
951.6839532695682,1146.0
951.9268936903366,1172.0
952.1698243865318,1161.0
952.4127453581277,1116.0
952.6556566050984,1141.0
952.8985581274177,1115.0
953.1414499250594,1128.0
953.3843319979977,1109.0
953.6272043462063,1150.0
953.8700669696592,1134.0
954.1129198683304,1160.0
954.3557630421936,1130.0
954.598596491223,1136.0
954.8414202153923,1157.0
955.0842342146755,1147.0
955.3270384890466,1127.0
955.5698330384793,1144.0
955.8126178629477,1147.0
956.0553929624257,1155.0
956.2981583368872,1137.0
956.5409139863061,1157.0
956.7836599106564,1155.0
957.0263961099118,1182.0
957.2691225840464,1147.0
957.5118393330342,1145.0
957.754546356849,1154.0
957.9972436554647,1160.0
958.2399312288552,1116.0
958.4826090769947,1140.0
958.7252771998567,1157.0
958.9679355974155,1141.0
959.2105842696445,1124.0
959.4532232165183,1166.0
959.6958524380103,1161.0
959.9384719340945,1148.0
960.1810817047451,1118.0
960.4236817499358,1138.0
960.6662720696406,1144.0
960.9088526638333,1140.0
961.1514235324878,1108.0
961.3939846755784,1115.0
961.6365360930786,1137.0
961.8790777849624,1170.0
962.1216097512037,1127.0
962.3641319917767,1123.0
962.606644506655,1160.0
962.8491472958127,1167.0
963.0916403592237,1142.0
963.3341236968618,1157.0
963.5765973087009,1121.0
963.8190611947151,1145.0
964.0615153548783,1144.0
964.3039597891644,1136.0
964.5463944975472,1147.0
964.7888194800006,1168.0
965.0312347364988,1121.0
965.2736402670155,1126.0
965.5160360715246,1152.0
965.7584221500001,1137.0
966.0007985024159,1105.0
966.243165128746,1153.0
966.485522028964,1145.0
966.7278692030444,1166.0
966.9702066509604,1140.0
967.2125343726866,1142.0
967.4548523681965,1129.0
967.6971606374641,1145.0
967.9394591804636,1126.0
968.1817479971685,1138.0
968.4240270875529,1143.0
968.6662964515907,1158.0
968.908556089256,1133.0
969.1508060005223,1154.0
969.3930461853639,1152.0
969.6352766437547,1157.0
969.8774973756683,1146.0
970.119708381079,1153.0
970.3619096599606,1149.0
970.6041012122869,1134.0
970.846283038032,1105.0
971.0884551371696,1148.0
971.3306175096737,1124.0
971.5727701555184,1124.0
971.8149130746775,1142.0
972.0570462671247,1147.0
972.2991697328343,1157.0
972.54128347178,1163.0
972.7833874839358,1133.0
973.0254817692755,1163.0
973.2675663277731,1190.0
973.5096411594027,1164.0
973.7517062641379,1141.0
973.9937616419528,1153.0
974.2358072928213,1159.0
974.4778432167172,1187.0
974.7198694136146,1146.0
974.9618858834873,1147.0
975.2038926263093,1149.0
975.4458896420545,1151.0
975.6878769306968,1138.0
975.9298544922101,1145.0
976.1718223265684,1156.0
976.4137804337454,1139.0
976.6557288137154,1129.0
976.8976674664519,1161.0
977.1395963919293,1135.0
977.381515590121,1153.0
977.6234250610012,1123.0
977.8653248045439,1144.0
978.1072148207228,1151.0
978.349095109512,1141.0
978.5909656708852,1115.0
978.8328265048167,1148.0
979.0746776112799,1146.0
979.316518990249,1138.0
979.5583506416982,1122.0
979.8001725656011,1153.0
980.0419847619316,1150.0
980.2837872306635,1164.0
980.5255799717712,1133.0
980.7673629852283,1123.0
981.0091362710086,1152.0
981.2508998290862,1177.0
981.4926536594351,1129.0
981.734397762029,1154.0
981.9761321368418,1150.0
982.2178567838478,1157.0
982.4595717030206,1130.0
982.7012768943342,1161.0
982.9429723577622,1137.0
983.1846580932793,1183.0
983.4263341008586,1146.0
983.6680003804744,1157.0
983.9096569321008,1160.0
984.1513037557114,1147.0
984.3929408512804,1120.0
984.6345682187812,1123.0
984.8761858581883,1155.0
985.1177937694753,1163.0
985.3593919526161,1128.0
985.6009804075849,1136.0
985.8425591343554,1139.0
986.0841281329017,1145.0
986.3256874031972,1130.0
986.5672369452166,1168.0
986.8087767589334,1153.0
987.0503068443215,1155.0
987.2918272013546,1115.0
987.5333378300072,1144.0
987.7748387302529,1160.0
988.0163299020653,1198.0
988.257811345419,1122.0
988.4992830602876,1147.0
988.7407450466447,1133.0
988.9821973044646,1125.0
989.2236398337212,1122.0
989.4650726343884,1167.0
989.7064957064399,1134.0
989.94790904985,1154.0
990.1893126645923,1151.0
990.4307065506409,1160.0
990.6720907079695,1165.0
990.9134651365523,1152.0
991.1548298363631,1142.0
991.3961848073757,1150.0
991.6375300495642,1179.0
991.8788655629025,1169.0
992.1201913473645,1136.0
992.3615074029238,1151.0
992.6028137295548,1148.0
992.8441103272314,1143.0
993.0853971959273,1113.0
993.3266743356161,1146.0
993.5679417462725,1159.0
993.80919942787,1160.0
994.0504473803821,1133.0
994.2916856037835,1143.0
994.5329140980479,1146.0
994.774132863149,1161.0
995.0153418990604,1121.0
995.256541205757,1141.0
995.4977307832119,1141.0
995.7389106313991,1135.0
995.980080750293,1122.0
996.2212411398671,1134.0
996.4623918000955,1136.0
996.7035327309518,1174.0
996.9446639324104,1167.0
997.185785404445,1133.0
997.4268971470293,1110.0
997.6679991601377,1141.0
997.9090914437438,1133.0
998.1501739978215,1145.0
998.3912468223447,1129.0
998.6323099172876,1135.0
998.8733632826239,1139.0
999.1144069183275,1147.0
999.3554408243724,1143.0
999.5964650007325,1176.0
999.8374794473817,1133.0
1000.0784841642937,1159.0
1000.319479151443,1150.0
1000.5604644088031,1132.0
1000.8014399363481,1132.0
1001.0424057340515,1144.0
1001.2833618018876,1151.0
1001.5243081398305,1152.0
1001.7652447478536,1138.0
1002.0061716259313,1149.0
1002.2470887740373,1137.0
1002.4879961921455,1157.0
1002.7288938802296,1121.0
1002.9697818382641,1146.0
1003.2106600662227,1161.0
1003.4515285640788,1161.0
1003.6923873318069,1122.0
1003.9332363693809,1129.0
1004.1740756767746,1143.0
1004.4149052539616,1165.0
1004.6557251009162,1150.0
1004.8965352176125,1137.0
1005.137335604024,1163.0
1005.3781262601246,1156.0
1005.6189071858887,1129.0
1005.8596783812898,1131.0
1006.1004398463017,1138.0
1006.3411915808988,1168.0
1006.5819335850549,1119.0
1006.8226658587437,1140.0
1007.0633884019389,1140.0
1007.3041012146151,1172.0
1007.5448042967458,1156.0
1007.7854976483048,1166.0
1008.0261812692664,1160.0
1008.2668551596043,1163.0
1008.5075193192926,1147.0
1008.7481737483046,1150.0
1008.9888184466149,1122.0
1009.2294534141973,1146.0
1009.4700786510253,1144.0
1009.7106941570735,1144.0
1009.9512999323154,1146.0
1010.1918959767249,1155.0
1010.4324822902759,1144.0
1010.6730588729425,1142.0
1010.9136257246987,1146.0
1011.1541828455182,1173.0
1011.3947302353747,1124.0
1011.6352678942427,1157.0
1011.8757958220957,1152.0
1012.1163140189077,1148.0
1012.3568224846528,1111.0
1012.5973212193047,1151.0
1012.8378102228374,1156.0
1013.0782894952248,1149.0
1013.3187590364408,1103.0
1013.5592188464595,1133.0
1013.7996689252545,1153.0
1014.0401092728,1148.0
1014.2805398890699,1131.0
1014.520960774038,1123.0
1014.761371927678,1132.0
1015.0017733499644,1153.0
1015.2421650408708,1135.0
1015.4825470003708,1156.0
1015.7229192284389,1144.0
1015.9632817250488,1140.0
1016.2036344901744,1124.0
1016.4439775237893,1140.0
1016.6843108258679,1138.0
1016.924634396384,1158.0
1017.1649482353116,1101.0
1017.4052523426242,1132.0
1017.645546718296,1153.0
1017.8858313623012,1143.0
1018.1261062746131,1126.0
1018.3663714552061,1148.0
1018.6066269040542,1135.0
1018.846872621131,1125.0
1019.0871086064102,1116.0
1019.3273348598664,1139.0
1019.5675513814731,1171.0
1019.807758171204,1168.0
1020.0479552290336,1136.0
1020.2881425549355,1140.0
1020.5283201488836,1147.0
1020.7684880108518,1146.0
1021.0086461408142,1108.0
1021.2487945387445,1137.0
1021.4889332046166,1139.0
1021.7290621384047,1140.0
1021.9691813400827,1115.0
1022.2092908096243,1138.0
1022.4493905470034,1134.0
1022.689480552194,1171.0
1022.9295608251703,1142.0
1023.1696313659058,1132.0
1023.4096921743744,1170.0
1023.6497432505504,1169.0
1023.8897845944075,1127.0
1024.1298162059197,1158.0
1024.3698380850608,1145.0
1024.6098502318048,1154.0
1024.8498526461256,1118.0
1025.089845327997,1170.0
1025.3298282773933,1174.0
1025.5698014942882,1159.0
1025.809764978655,1118.0
1026.0497187304688,1132.0
1026.2896627497028,1149.0
1026.529597036331,1157.0
1026.7695215903273,1112.0
1027.0094364116655,1143.0
1027.24934150032,1128.0
1027.4892368562644,1141.0
1027.7291224794726,1128.0
1027.9689983699186,1141.0
1028.2088645275765,1142.0
1028.4487209524195,1160.0
1028.6885676444224,1128.0
1028.9284046035589,1153.0
1029.1682318298024,1156.0
1029.4080493231272,1157.0
1029.6478570835075,1143.0
1029.8876551109165,1132.0
1030.1274434053287,1158.0
1030.367221966718,1163.0
1030.6069907950582,1133.0
1030.846749890323,1165.0
1031.0864992524866,1160.0
1031.326238881523,1143.0
1031.565968777406,1142.0
1031.8056889401093,1176.0
1032.0453993696071,1138.0
1032.2851000658732,1149.0
1032.5247910288815,1114.0
1032.7644722586058,1160.0
1033.0041437550206,1157.0
1033.2438055180992,1166.0
1033.4834575478158,1137.0
1033.7230998441441,1164.0
1033.9627324070584,1130.0
1034.2023552365324,1141.0
1034.4419683325395,1113.0
1034.6815716950546,1127.0
1034.921165324051,1140.0
1035.160749219503,1153.0
1035.400323381384,1154.0
1035.6398878096684,1126.0
1035.8794425043295,1120.0
1036.118987465342,1160.0
1036.3585226926796,1136.0
1036.598048186316,1147.0
1036.8375639462251,1149.0
1037.0770699723807,1180.0
1037.3165662647575,1160.0
1037.5560528233286,1172.0
1037.795529648068,1171.0
1038.03499673895,1133.0
1038.2744540959484,1120.0
1038.513901719037,1146.0
1038.7533396081897,1130.0
1038.9927677633805,1154.0
1039.2321861845835,1156.0
1039.471594871772,1157.0
1039.7109938249207,1134.0
1039.950383044003,1148.0
1040.1897625289932,1128.0
1040.429132279865,1170.0
1040.6684922965921,1189.0
1040.9078425791488,1162.0
1041.147183127509,1145.0
1041.3865139416462,1149.0
1041.6258350215348,1146.0
1041.8651463671483,1133.0
1042.1044479784612,1147.0
1042.3437398554468,1149.0
1042.5830219980796,1150.0
1042.822294406333,1151.0
1043.0615570801808,1127.0
1043.3008100195977,1162.0
1043.5400532245571,1181.0
1043.7792866950329,1180.0
1044.0185104309994,1155.0
1044.2577244324298,1154.0
1044.496928699299,1148.0
1044.7361232315795,1148.0
1044.975308029247,1123.0
1045.2144830922741,1158.0
1045.4536484206349,1142.0
1045.6928040143039,1144.0
1045.9319498732546,1119.0
1046.171085997461,1148.0
1046.410212386897,1163.0
1046.6493290415365,1167.0
1046.8884359613537,1135.0
1047.1275331463219,1142.0
1047.3666205964155,1160.0
1047.6056983116084,1182.0
1047.8447662918745,1136.0
1048.0838245371874,1171.0
1048.3228730475216,1155.0
1048.5619118228506,1163.0
1048.8009408631483,1131.0
1049.0399601683887,1133.0
1049.2789697385458,1139.0
1049.5179695735935,1145.0
1049.7569596735057,1140.0
1049.995940038256,1113.0
1050.2349106678193,1138.0
1050.4738715621686,1139.0
1050.7128227212777,1113.0
1050.9517641451212,1163.0
1051.1906958336726,1148.0
1051.429617786906,1161.0
1051.6685300047955,1121.0
1051.9074324873145,1169.0
1052.1463252344374,1139.0
1052.3852082461374,1153.0
1052.6240815223896,1154.0
1052.862945063167,1158.0
1053.101798868444,1149.0
1053.3406429381937,1153.0
1053.579477272391,1114.0
1053.8183018710095,1113.0
1054.0571167340227,1137.0
1054.295921861405,1158.0
1054.5347172531306,1128.0
1054.7735029091725,1150.0
1055.0122788295055,1137.0
1055.2510450141028,1139.0
1055.489801462939,1114.0
1055.7285481759875,1147.0
1055.9672851532225,1130.0
1056.2060123946183,1159.0
1056.4447299001479,1123.0
1056.6834376697855,1140.0
1056.9221357035053,1131.0
1057.1608240012813,1157.0
1057.399502563087,1132.0
1057.6381713888966,1150.0
1057.8768304786843,1138.0
1058.1154798324235,1150.0
1058.3541194500883,1142.0
1058.5927493316526,1156.0
1058.8313694770904,1146.0
1059.0699798863757,1166.0
1059.308580559482,1125.0
1059.5471714963837,1150.0
1059.7857526970547,1139.0
1060.0243241614683,1133.0
1060.2628858895991,1120.0
1060.5014378814212,1139.0
1060.7399801369077,1156.0
1060.9785126560328,1157.0
1061.217035438771,1133.0
1061.4555484850957,1162.0
1061.6940517949806,1168.0
1061.9325453684,1153.0
1062.171029205328,1126.0
1062.4095033057379,1129.0
1062.6479676696042,1138.0
1062.8864222969007,1156.0
1063.124867187601,1140.0
1063.3633023416792,1161.0
1063.6017277591095,1155.0
1063.8401434398654,1143.0
1064.0785493839212,1135.0
1064.3169455912503,1147.0
1064.5553320618271,1149.0
1064.7937087956254,1179.0
1065.0320757926193,1137.0
1065.2704330527822,1129.0
1065.5087805760884,1156.0
1065.7471183625119,1136.0
1065.985446412026,1133.0
1066.2237647246056,1150.0
1066.462073300224,1138.0
1066.700372138855,1146.0
1066.9386612404726,1114.0
1067.1769406050512,1169.0
1067.4152102325645,1169.0
1067.653470122986,1160.0
1067.8917202762898,1131.0
1068.1299606924504,1140.0
1068.3681913714408,1124.0
1068.6064123132355,1159.0
1068.8446235178085,1172.0
1069.0828249851334,1168.0
1069.3210167151844,1153.0
1069.5591987079351,1176.0
1069.7973709633598,1162.0
1070.035533481432,1213.0
1070.2736862621255,1155.0
1070.511829305415,1160.0
1070.749962611274,1158.0
1070.9880861796762,1164.0
1071.2262000105954,1146.0
1071.4643041040065,1128.0
1071.7023984598825,1116.0
1071.940483078197,1146.0
1072.1785579589252,1178.0
1072.4166231020401,1163.0
1072.6546785075159,1118.0
1072.8927241753263,1160.0
1073.1307601054455,1138.0
1073.368786297847,1149.0
1073.6068027525052,1138.0
1073.8448094693938,1165.0
1074.0828064484867,1136.0
1074.3207936897581,1150.0
1074.5587711931814,1129.0
1074.7967389587309,1144.0
1075.0346969863804,1169.0
1075.2726452761037,1180.0
1075.5105838278753,1116.0
1075.7485126416684,1136.0
1075.9864317174572,1182.0
1076.2243410552155,1180.0
1076.4622406549177,1151.0
1076.7001305165372,1141.0
1076.938010640048,1160.0
1077.1758810254241,1155.0
1077.4137416726396,1121.0
1077.6515925816682,1120.0
1077.8894337524835,1141.0
1078.1272651850602,1145.0
1078.3650868793718,1133.0
1078.6028988353924,1148.0
1078.840701053095,1139.0
1079.078493532455,1166.0
1079.3162762734453,1143.0
1079.55404927604,1163.0
1079.7918125402132,1152.0
1080.029566065939,1161.0
1080.267309853191,1136.0
1080.5050439019428,1149.0
1080.742768212169,1135.0
1080.9804827838434,1170.0
1081.2181876169393,1149.0
1081.4558827114315,1162.0
1081.6935680672932,1164.0
1081.931243684499,1166.0
1082.1689095630218,1165.0
1082.4065657028366,1156.0
1082.6442121039167,1161.0
1082.8818487662363,1178.0
1083.1194756897692,1138.0
1083.3570928744894,1144.0
1083.5947003203703,1152.0
1083.8322980273867,1140.0
1084.069885995512,1114.0
1084.3074642247202,1128.0
1084.5450327149854,1154.0
1084.782591466281,1155.0
1085.0201404785814,1127.0
1085.2576797518607,1163.0
1085.495209286092,1151.0
1085.73272908125,1151.0
1085.9702391373082,1125.0
1086.207739454241,1134.0
1086.4452300320218,1157.0
1086.6827108706245,1153.0
1086.9201819700238,1118.0
1087.1576433301923,1162.0
1087.3950949511052,1164.0
1087.632536832736,1141.0
1087.869968975058,1129.0
1088.1073913780458,1150.0
1088.3448040416731,1126.0
1088.582206965914,1141.0
1088.8196001507426,1148.0
1089.056983596132,1154.0
1089.294357302057,1153.0
1089.531721268491,1169.0
1089.769075495408,1123.0
1090.006419982782,1147.0
1090.243754730587,1147.0
1090.4810797387968,1165.0
1090.7183950073852,1142.0
1090.9557005363265,1134.0
1091.1929963255945,1135.0
1091.4302823751627,1167.0
1091.6675586850054,1145.0
1091.9048252550967,1152.0
1092.14208208541,1141.0
1092.3793291759196,1165.0
1092.6165665265992,1097.0
1092.853794137423,1109.0
1093.0910120083645,1139.0
1093.3282201393981,1152.0
1093.5654185304975,1125.0
1093.8026071816366,1135.0
1094.0397860927894,1128.0
1094.2769552639295,1136.0
1094.5141146950314,1121.0
1094.7512643860684,1153.0
1094.9884043370148,1159.0
1095.2255345478445,1161.0
1095.4626550185314,1133.0
1095.699765749049,1137.0
1095.936866739372,1153.0
1096.1739579894738,1158.0
1096.4110394993286,1136.0
1096.6481112689096,1145.0
1096.8851732981918,1162.0
1097.1222255871487,1148.0
1097.3592681357536,1131.0
1097.596300943981,1162.0
1097.8333240118054,1160.0
1098.0703373391996,1157.0
1098.3073409261378,1127.0
1098.5443347725945,1157.0
1098.781318878543,1162.0
1099.0182932439575,1165.0
1099.255257868812,1133.0
1099.4922127530801,1131.0
1099.729157896736,1146.0
1099.9660932997535,1149.0
1100.2030189621066,1124.0
1100.4399348837692,1135.0
1100.6768410647155,1158.0
1100.9137375049186,1185.0
1101.1506242043533,1106.0
1101.387501162993,1154.0
1101.6243683808113,1169.0
1101.8612258577834,1223.0
1102.0980735938822,1140.0
1102.3349115890817,1142.0
1102.5717398433558,1145.0
1102.8085583566788,1149.0
1103.0453671290243,1147.0
1103.2821661603664,1154.0
1103.518955450679,1164.0
1103.7557349999358,1161.0
1103.9925048081109,1099.0
1104.2292648751782,1137.0
1104.4660152011118,1144.0
1104.7027557858853,1140.0
1104.9394866294726,1123.0
1105.176207731848,1159.0
1105.4129190929852,1172.0
1105.649620712858,1172.0
1105.8863125914404,1128.0
1106.1229947287065,1158.0
1106.35966712463,1185.0
1106.596329779185,1163.0
1106.832982692345,1138.0
1107.0696258640846,1165.0
1107.3062592943775,1179.0
1107.542882983197,1162.0
1107.7794969305178,1140.0
1108.0161011363134,1162.0
1108.252695600558,1146.0
1108.4892803232249,1175.0
1108.7258553042889,1114.0
1108.9624205437235,1108.0
1109.1989760415024,1139.0
1109.4355217976,1164.0
1109.67205781199,1127.0
1109.908584084646,1142.0
1110.1451006155423,1156.0
1110.3816074046526,1172.0
1110.6181044519512,1138.0
1110.8545917574115,1155.0
1111.0910693210078,1158.0
1111.327537142714,1164.0
1111.563995222504,1149.0
1111.8004435603514,1159.0
1112.0368821562304,1161.0
1112.273311010115,1181.0
1112.509730121979,1137.0
1112.7461394917962,1171.0
1112.9825391195404,1166.0
1113.2189290051863,1165.0
1113.4553091487069,1139.0
1113.6916795500767,1132.0
1113.9280402092693,1154.0
1114.1643911262588,1161.0
1114.400732301019,1125.0
1114.637063733524,1142.0
1114.8733854237478,1155.0
1115.1096973716635,1165.0
1115.3459995772462,1152.0
1115.582292040469,1169.0
1115.8185747613063,1163.0
1116.0548477397315,1181.0
1116.291110975719,1117.0
1116.5273644692425,1123.0
1116.7636082202757,1139.0
1116.9998422287933,1170.0
1117.2360664947685,1123.0
1117.4722810181756,1160.0
1117.7084857989878,1138.0
1117.94468083718,1158.0
1118.1808661327257,1115.0
1118.4170416855989,1126.0
1118.653207495773,1153.0
1118.8893635632223,1172.0
1119.1255098879212,1131.0
1119.3616464698428,1132.0
1119.5977733089617,1126.0
1119.8338904052516,1149.0
1120.0699977586862,1130.0
1120.3060953692393,1120.0
1120.5421832368854,1127.0
